Time(sec),VGRF_left_s1,VGRF_left_s2,VGRF_left_s3,VGRF_left_s4,VGRF_left_s5,VGRF_left_s6,VGRF_left_s7,VGRF_left_s8,VGRF_right_s1,VGRF_right_s2,VGRF_right_s3,VGRF_right_s4,VGRF_right_s5,VGRF_right_s6,VGRF_right_s7,VGRF_right_s8,Total_force_left,Total_force_right
0.0100,203.5,64.35,67.98,42.02,7.92,88.11,80.3,88.99,25.41,9.68,11,6.93,0,32.12,95.04,145.42,643.17,325.6
0.0200,203.5,64.35,71.5,43.34,9.46,90.97,87.78,94.27,23.1,8.03,11,6.93,0,27.5,91.63,136.62,665.17,304.81
0.0300,206.36,65.89,73.26,44.66,9.46,93.94,95.26,99.55,20.79,8.03,8.25,6.93,0,20.57,88.22,127.82,688.38,280.61
0.0400,209.22,67.43,75.02,45.98,9.46,96.91,99,104.83,16.17,6.38,8.25,4.62,0,18.37,84.92,116.82,707.85,255.53
0.0500,211.97,69.08,76.67,47.3,9.46,99.88,102.74,110.22,13.86,6.38,8.25,4.62,0,16.06,74.8,103.4,727.32,227.37
0.0600,214.83,70.62,78.43,48.62,9.46,102.74,106.48,114.95,11.55,6.38,5.5,4.62,0,13.75,64.68,89.76,746.13,196.24
0.0700,220.55,73.81,80.19,51.26,9.46,105.71,106.48,119.79,9.24,4.84,5.5,4.62,0,11.44,55.44,80.63,767.25,171.71
0.0800,226.27,78.43,83.71,52.58,11.11,108.68,110.22,119.79,6.93,4.84,5.5,4.62,0,9.13,47.85,71.61,790.79,150.48
0.0900,234.96,81.62,87.23,53.9,11.11,111.65,110.22,119.79,6.93,4.84,5.5,4.62,0,6.82,40.26,62.48,810.48,131.45
0.1000,246.62,86.35,90.75,56.54,11.11,114.51,113.74,124.63,9.24,6.38,5.5,4.62,0,4.51,32.67,49.94,844.25,112.86
0.1100,261.14,91.08,94.27,58.08,11.11,117.37,113.74,124.63,9.24,6.38,5.5,4.62,0,0,25.19,38.39,871.42,89.32
0.1200,272.69,95.7,97.68,59.62,11.11,120.23,113.74,129.47,11.55,6.38,5.5,4.62,0,0,17.6,32.67,900.24,78.32
0.1300,284.35,100.43,101.2,61.27,11.11,120.23,113.74,124.63,13.86,6.38,5.5,6.93,0,0,7.48,22.99,916.96,63.14
0.1400,295.9,103.62,102.96,62.81,12.65,123.09,113.74,129.47,16.17,8.03,8.25,9.35,0,0,0,11.44,944.24,53.24
0.1500,304.59,108.35,106.48,64.35,12.65,125.95,110.22,124.63,18.48,8.03,8.25,11.66,0,0,0,5.72,957.22,52.14
0.1600,313.28,109.89,108.24,67.54,11.11,128.81,110.22,129.47,18.48,8.03,8.25,11.66,0,0,0,5.72,978.56,52.14
0.1700,313.28,113.08,108.24,69.08,12.65,131.67,110.22,129.47,20.79,8.03,8.25,11.66,0,0,0,3.74,987.69,52.47
0.1800,310.42,114.62,108.24,72.27,12.65,134.53,110.22,129.47,18.48,8.03,8.25,9.35,0,0,0,3.74,992.42,47.85
0.1900,304.59,116.16,108.24,77,12.65,140.25,106.48,134.31,20.79,8.03,8.25,11.66,0,0,0,3.74,999.68,52.47
0.2000,298.76,116.16,108.24,80.19,12.65,145.97,106.48,134.31,20.79,8.03,8.25,9.35,0,0,0,0,1002.76,46.42
0.2100,287.21,116.16,106.48,83.38,12.65,151.69,102.74,134.31,20.79,8.03,8.25,9.35,0,0,0,0,994.62,46.42
0.2200,275.66,114.62,102.96,88.11,12.65,160.27,102.74,139.15,20.79,8.03,8.25,9.35,0,0,0,3.74,996.16,50.16
0.2300,264,111.43,101.2,91.19,11.11,166.1,102.74,139.15,20.79,8.03,8.25,9.35,0,0,0,0,986.92,46.42
0.2400,252.45,108.35,97.68,94.38,11.11,171.82,102.74,143.99,20.79,8.03,8.25,9.35,0,0,0,0,982.52,46.42
0.2500,240.79,105.16,94.27,97.57,11.11,177.54,102.74,143.99,20.79,8.03,8.25,9.35,0,0,0,0,973.17,46.42
0.2600,229.24,100.43,92.51,100.65,11.11,183.26,102.74,143.99,20.79,8.03,8.25,9.35,0,0,0,0,963.93,46.42
0.2700,217.69,97.35,88.99,103.84,11.11,188.98,102.74,148.83,20.79,8.03,8.25,9.35,0,0,0,3.74,959.53,50.16
0.2800,209.22,94.16,85.47,105.38,11.11,194.7,106.48,148.83,20.79,8.03,8.25,9.35,0,0,0,3.74,955.35,50.16
0.2900,200.64,91.08,83.71,108.57,11.11,200.42,102.74,148.83,20.79,8.03,8.25,9.35,0,0,0,3.74,947.1,50.16
0.3000,192.17,86.35,80.19,110.22,11.11,206.14,106.48,153.67,20.79,8.03,8.25,9.35,0,0,0,3.74,946.33,50.16
0.3100,183.7,83.16,76.67,113.52,11.11,209,106.48,153.67,20.79,8.03,8.25,9.35,0,0,0,3.74,937.31,50.16
0.3200,175.23,78.43,73.26,115.17,11.11,214.72,110.22,153.67,20.79,8.03,8.25,9.35,0,0,0,3.74,931.81,50.16
0.3300,166.65,75.35,69.74,116.82,11.11,220.55,110.22,158.51,20.79,8.03,8.25,9.35,0,0,0,3.74,928.95,50.16
0.3400,157.74,70.62,67.98,120.23,11.11,223.3,113.74,163.35,20.79,8.03,8.25,6.93,0,0,0,3.74,928.07,47.74
0.3500,148.83,65.89,62.7,121.88,11.11,228.91,117.26,168.19,20.79,8.03,8.25,6.93,0,0,0,3.74,924.77,47.74
0.3600,139.92,61.16,59.18,123.53,11.11,234.52,120.78,168.19,20.79,8.03,8.25,9.35,0,0,0,3.74,918.39,50.16
0.3700,128.04,56.54,55.77,125.18,11.11,240.13,127.82,178.86,20.79,8.03,8.25,9.35,0,0,0,3.74,923.45,50.16
0.3800,116.16,52.25,50.27,126.83,11.11,245.63,134.97,184.25,20.79,8.03,8.25,9.35,0,0,0,3.74,921.47,50.16
0.3900,106.92,46.64,46.75,126.83,11.11,251.24,138.49,189.64,20.79,8.03,8.25,9.35,0,0,0,5.72,917.62,52.14
0.4000,94.16,42.35,41.36,126.83,11.11,256.85,149.05,200.42,20.79,8.03,5.5,6.93,0,0,0,3.74,922.13,44.99
0.4100,78.1,36.74,37.73,126.83,11.11,265.21,156.2,205.81,20.79,8.03,5.5,9.35,0,0,0,5.72,917.73,49.39
0.4200,65.34,32.45,32.34,125.18,11.11,268.07,163.24,211.2,18.48,8.03,5.5,9.35,0,0,0,5.72,908.93,47.08
0.4300,50.6,26.84,26.95,123.53,11.11,273.68,170.39,216.59,18.48,8.03,5.5,6.93,0,0,0,5.72,899.69,44.66
0.4400,43.01,21.12,23.32,121.88,11.11,279.29,174.02,221.98,18.48,8.03,5.5,9.35,0,0,0,3.74,895.73,45.1
0.4500,37.95,18.37,19.69,118.47,9.46,282.15,177.76,226.71,18.48,8.03,5.5,9.35,0,0,0,5.72,890.56,47.08
0.4600,35.42,15.51,17.93,113.52,9.46,287.87,177.76,231.44,16.17,6.38,5.5,9.35,0,0,0,5.72,888.91,43.12
0.4700,32.89,14.08,16.17,107.03,7.92,290.73,177.76,236.28,16.17,6.38,5.5,6.93,0,0,0,3.74,882.86,38.72
0.4800,30.36,12.65,14.3,99.11,6.27,290.73,177.76,236.28,16.17,6.38,5.5,6.93,0,0,0,5.72,867.46,40.7
0.4900,27.83,11.22,12.54,89.65,6.27,293.59,177.76,241.01,16.17,6.38,5.5,6.93,0,0,0,5.72,859.87,40.7
0.5000,25.3,9.79,12.54,81.73,6.27,296.45,174.02,245.85,16.17,6.38,5.5,6.93,0,0,0,5.72,851.95,40.7
0.5100,25.3,9.79,12.54,72.27,4.73,296.45,170.39,245.85,16.17,6.38,5.5,6.93,0,0,0,5.72,837.32,40.7
0.5200,25.3,8.47,10.78,62.81,4.73,296.45,166.76,250.58,18.48,6.38,5.5,6.93,0,0,0,5.72,825.88,43.01
0.5300,22.77,8.47,10.78,53.9,3.08,293.59,163.24,255.31,18.48,6.38,5.5,6.93,0,0,0,5.72,811.14,43.01
0.5400,22.77,8.47,10.78,45.98,3.08,287.87,156.2,260.15,18.48,6.38,5.5,6.93,0,0,0,5.72,795.3,43.01
0.5500,22.77,8.47,10.78,38.06,0,282.15,149.05,264.88,18.48,6.38,5.5,6.93,0,0,0,5.72,776.16,43.01
0.5600,20.24,7.04,10.78,31.46,0,273.68,145.53,269.72,23.1,6.38,5.5,6.93,0,0,0,5.72,758.45,47.63
0.5700,20.24,7.04,8.91,26.29,0,262.46,138.49,279.29,34.76,6.38,5.5,6.93,0,0,0,7.59,742.72,61.16
0.5800,17.71,7.04,8.91,22.33,0,248.49,131.45,283.91,71.17,8.03,5.5,9.35,0,0,0,7.59,719.84,101.64
0.5900,17.71,5.61,8.91,19.69,0,228.91,124.3,293.15,171.16,11.22,8.25,9.35,0,6.82,0,7.59,698.28,214.39
0.6000,17.71,5.61,8.91,17.05,0,209,120.78,297.77,256.3,19.36,13.75,11.66,0,9.13,0,9.57,676.83,319.77
0.6100,15.18,5.61,7.15,14.41,0,188.98,113.74,302.39,330.44,35.53,27.5,13.97,0,11.44,0,13.42,647.46,432.3
0.6200,15.18,5.61,7.15,11.77,0,168.96,110.22,307.01,366.96,50.05,46.75,13.97,0,13.75,0,13.42,625.9,504.9
0.6300,12.65,4.18,7.15,10.45,0,148.83,106.48,307.01,373.01,63.69,57.53,18.7,0,16.06,0,11.44,596.75,540.43
0.6400,10.12,4.18,5.39,9.13,0,131.67,102.74,307.01,366.96,72.6,64.9,18.7,0,16.06,0,11.44,570.24,550.66
0.6500,7.59,2.75,5.39,7.81,0,117.37,102.74,302.39,354.86,83.38,72.27,28.05,0,20.57,0,11.44,546.04,570.57
0.6600,0,2.75,5.39,7.81,0,105.71,102.74,293.15,351.78,97.68,77.22,39.82,0,22.88,0,13.42,517.55,602.8
0.6700,0,2.75,5.39,6.49,0,96.91,99,274.45,345.73,106.59,82.06,49.17,0,25.19,0,15.29,484.99,624.03
0.6800,0,0,3.52,6.49,0,90.97,91.52,250.58,348.7,115.61,87.01,58.63,4.62,29.81,0,17.27,443.08,661.65
0.6900,0,0,3.52,6.49,0,79.2,84.04,211.2,354.86,123.09,91.96,64.35,4.62,36.74,0,19.14,384.45,694.76
0.7000,0,0,3.52,5.17,0,70.4,80.3,173.47,363.88,128.7,94.38,70.18,4.62,41.25,0,19.14,332.86,722.15
0.7100,0,0,3.52,5.17,0,64.57,72.82,158.51,373.01,134.2,99.33,73.15,4.62,43.56,0,21.12,304.59,748.99
0.7199,0,0,3.52,5.17,0,55.77,65.34,129.47,382.14,139.81,101.75,78.98,4.62,45.87,0,21.12,259.27,774.29
0.7299,0,0,3.52,3.85,0,46.42,57.97,104.83,391.38,143.55,104.17,81.84,4.62,50.49,0,21.12,216.59,797.17
0.7399,0,0,3.52,2.53,0,37.18,51.48,94.27,400.62,149.16,106.7,84.81,7.04,50.49,0,21.12,188.98,819.94
0.7499,0,0,3.52,0,0,24.75,38.61,78.32,409.86,152.79,111.65,90.53,7.04,52.8,0,22.99,145.2,847.66
0.7599,0,0,3.52,2.53,0,12.32,22.44,48.4,416.13,156.53,113.85,93.5,7.04,52.8,0,22.99,89.21,862.84
0.7699,0,2.75,3.52,5.17,0,0,0,0,422.29,160.27,113.85,96.36,7.04,55.11,0,22.99,11.44,877.91
0.7799,7.59,2.75,3.52,5.17,0,0,0,0,428.45,164.01,113.85,102.19,7.04,57.31,0,24.97,19.03,897.82
0.7899,5.06,2.75,3.52,6.49,0,0,0,0,431.53,167.75,113.85,105.16,7.04,57.31,0,24.97,17.82,907.61
0.7999,7.59,2.75,3.52,6.49,0,0,0,0,434.61,171.49,113.85,110.99,7.04,59.62,0,24.97,20.35,922.57
0.8099,7.59,4.18,3.52,6.49,0,0,0,0,434.61,173.36,113.85,113.96,7.04,61.82,0,24.97,21.78,929.61
0.8199,10.12,4.18,3.52,7.81,0,0,0,0,434.61,175.23,113.85,116.93,7.04,61.82,0,24.97,25.63,934.45
0.8299,10.12,4.18,3.52,6.49,0,0,0,0,431.53,173.36,113.85,116.93,7.04,61.82,0,24.97,24.31,929.5
0.8399,10.12,4.18,3.52,6.49,0,0,0,0,431.53,171.49,116.16,119.9,7.04,64.13,4.95,24.97,24.31,940.17
0.8499,10.12,4.18,3.52,7.81,0,0,0,0,425.37,171.49,116.16,119.9,9.35,64.13,4.95,24.97,25.63,936.32
0.8599,10.12,4.18,3.52,6.49,0,0,0,0,419.21,169.62,116.16,122.87,9.35,64.13,4.95,26.84,24.31,933.13
0.8699,10.12,4.18,3.52,6.49,0,0,0,0,409.86,167.75,116.16,122.87,7.04,66.33,7.48,26.84,24.31,924.33
0.8799,10.12,4.18,3.52,6.49,0,0,0,0,397.54,164.01,113.85,125.84,9.35,68.64,10.01,26.84,24.31,916.08
0.8899,10.12,4.18,3.52,7.81,0,0,0,0,385.22,162.14,113.85,128.81,9.35,73.15,10.01,28.82,25.63,911.35
0.8999,10.12,4.18,3.52,6.49,0,0,0,0,370.04,160.27,111.65,134.75,9.35,77.66,15.07,30.69,24.31,909.48
0.9099,10.12,4.18,3.52,6.49,0,0,0,0,351.78,156.53,109.12,140.69,9.35,82.17,17.6,30.69,24.31,897.93
0.9199,10.12,4.18,3.52,6.49,0,0,0,0,330.44,152.79,106.7,149.6,9.35,88.99,20.13,32.67,24.31,890.67
0.9299,10.12,4.18,3.52,7.81,0,0,0,0,308.77,147.29,106.7,155.54,11.77,95.81,25.19,36.52,25.63,887.59
0.9399,10.12,4.18,3.52,6.49,0,0,0,0,287.1,141.68,101.75,164.45,11.77,102.52,30.14,38.39,24.31,877.8
0.9499,10.12,4.18,3.52,6.49,0,0,0,0,259.38,134.2,99.33,172.92,14.08,111.65,35.2,40.37,24.31,867.13
0.9599,10.12,4.18,3.52,6.49,0,0,0,0,231.66,124.96,94.38,180.95,14.08,121.55,40.26,44.22,24.31,852.06
0.9699,10.12,4.18,3.52,6.49,0,0,0,0,204.38,113.85,89.43,191.73,16.39,131.45,45.32,46.09,24.31,838.64
0.9799,10.12,2.75,3.52,6.49,0,0,0,0,177.21,103.07,82.06,199.87,16.39,141.35,50.38,48.07,22.88,818.4
0.9899,10.12,4.18,0,6.49,0,0,0,0,153.23,92.29,74.69,210.65,16.39,153.67,52.91,49.94,20.79,803.77
0.9999,7.59,4.18,3.52,6.49,0,0,0,0,129.36,79.75,67.32,218.79,16.39,166.1,57.97,51.92,21.78,787.6
1.0099,7.59,2.75,3.52,6.49,0,0,0,0,104.5,68.97,59.95,229.68,16.39,175.67,61.27,55.77,20.35,772.2
1.0199,7.59,2.75,0,6.49,0,0,0,0,81.18,56.54,49.5,238.04,16.39,187.77,64.68,60.28,16.83,754.38
1.0299,7.59,2.75,3.52,6.49,0,0,0,0,61.27,46.75,38.5,243.65,14.08,199.87,64.68,62.48,20.35,731.28
1.0399,7.59,2.75,0,7.81,0,0,0,0,53.24,38.72,33,249.15,14.08,211.97,64.68,69.3,18.15,734.14
1.0499,7.59,4.18,0,7.81,0,0,0,0,48.62,32.23,27.5,249.15,11.77,224.07,64.68,76.12,19.58,734.14
1.0599,7.59,4.18,0,7.81,0,0,0,0,44,27.39,24.75,246.4,11.77,236.39,61.27,80.63,19.58,732.6
1.0699,7.59,4.18,3.52,7.81,0,0,0,0,41.69,24.2,22,240.79,9.35,248.82,57.97,87.45,23.1,732.27
1.0799,7.59,4.18,3.52,7.81,0,0,0,0,37.07,22.55,19.25,226.93,9.35,263.67,52.91,92.07,23.1,723.8
1.0899,10.12,4.18,3.52,9.13,0,0,0,0,34.76,19.36,13.75,210.65,7.04,275.99,47.85,96.58,26.95,705.98
1.0999,10.12,4.18,3.52,9.13,0,0,0,0,34.76,19.36,13.75,189.09,4.62,286.11,45.32,98.78,26.95,691.79
1.1099,10.12,4.18,3.52,9.13,0,0,0,0,34.76,17.71,13.75,161.48,0,293.81,40.26,103.4,26.95,665.17
1.1199,10.12,4.18,3.52,10.45,0,6.16,0,0,32.45,16.06,11,134.75,0,298.87,37.73,107.91,34.43,638.77
1.1299,10.12,4.18,3.52,10.45,0,6.16,0,0,32.45,16.06,11,110.99,0,301.51,35.2,114.62,34.43,621.83
1.1399,10.12,4.18,3.52,10.45,0,6.16,0,0,32.45,16.06,11,93.5,0,301.51,32.67,121.22,34.43,608.41
1.1499,17.71,5.61,3.52,9.13,0,6.16,0,0,30.14,14.52,8.25,76.01,0,298.87,32.67,127.82,42.13,588.28
1.1599,32.89,8.47,3.52,9.13,0,9.24,0,0,30.14,14.52,8.25,56.21,0,291.28,32.67,136.62,63.25,569.69
1.1699,100.54,14.08,5.39,10.45,0,15.4,0,0,27.72,12.87,8.25,46.86,0,281.05,32.67,141.02,145.86,550.44
1.1799,287.21,28.16,10.78,13.09,0,24.75,0,0,25.41,11.22,5.5,37.51,0,266.09,32.67,147.62,363.99,526.02
1.1899,367.84,45.21,25.08,14.41,0,27.83,0,0,23.1,9.68,5.5,32.78,0,246.29,37.73,149.82,480.37,504.9
1.1999,407.11,55.11,41.36,17.05,0,33.99,0,0,20.79,8.03,0,28.05,0,219.23,37.73,149.82,554.62,463.65
1.2099,413.05,65.89,50.27,19.69,0,37.18,0,0,16.17,8.03,0,25.74,0,190.19,42.79,149.82,586.08,432.74
1.2199,395.34,75.35,57.42,22.33,0,37.18,0,8.8,13.86,6.38,0,21.01,0,163.57,47.85,149.82,596.42,402.49
1.2299,380.16,86.35,60.94,28.82,0,43.34,0,8.8,0,4.84,0,21.01,0,133.87,50.38,147.62,608.41,357.72
1.2399,370.92,100.43,67.98,39.38,0,46.42,0,13.2,0,3.19,0,18.7,0,109.34,52.91,141.02,638.33,325.16
1.2499,374,113.08,75.02,45.98,3.08,49.5,0,22,0,3.19,0,16.39,0,82.17,52.91,116.82,682.66,271.48
1.2599,377.08,120.89,83.71,52.58,3.08,55.77,0,26.4,0,3.19,0,16.39,0,64.13,45.32,94.27,719.51,223.3
1.2699,386.32,127.16,90.75,55.22,4.73,70.4,6.38,35.2,0,3.19,0,13.97,0,52.8,37.73,76.12,776.16,183.81
1.2799,395.34,131.89,95.92,56.54,4.73,79.2,9.57,39.6,0,4.84,0,11.66,0,41.25,27.72,53.79,812.79,139.26
1.2899,398.31,133.54,101.2,58.08,4.73,85.14,16.06,48.4,0,6.38,0,11.66,0,27.5,15.07,44.22,845.46,104.83
1.2999,401.28,135.08,106.48,59.62,4.73,90.97,22.44,52.8,0,6.38,0,11.66,0,16.06,4.95,22.99,873.4,62.04
1.3099,401.28,135.08,111.76,61.27,6.27,96.91,25.74,57.2,11.55,6.38,0,13.97,0,4.51,0,0,895.51,36.41
1.3199,398.31,136.62,115.28,64.35,6.27,99.88,32.12,62.48,16.17,6.38,0,13.97,0,0,0,0,915.31,36.52
1.3299,398.31,136.62,116.93,67.54,6.27,105.71,35.42,67.76,13.86,6.38,0,11.66,0,0,0,0,934.56,31.9
1.3399,392.37,138.27,116.93,70.73,7.92,108.68,38.61,67.76,16.17,6.38,0,11.66,0,0,0,0,941.27,34.21
1.3499,383.24,139.81,115.28,73.81,7.92,114.51,41.8,73.04,16.17,6.38,5.5,11.66,0,0,0,0,949.41,39.71
1.3599,370.92,139.81,111.76,77,7.92,120.23,44.99,73.04,16.17,6.38,5.5,11.66,0,0,0,0,945.67,39.71
1.3699,355.41,138.27,110,80.19,7.92,123.09,44.99,73.04,16.17,6.38,0,11.66,0,0,0,0,932.91,34.21
1.3799,343.09,133.54,108.24,81.73,7.92,128.81,48.29,78.32,18.48,6.38,0,11.66,0,0,0,0,929.94,36.52
1.3899,330.77,130.35,108.24,83.38,9.46,128.81,51.48,78.32,18.48,6.38,5.5,11.66,0,0,0,0,920.81,42.02
1.3999,319.11,125.62,108.24,84.92,9.46,131.67,54.67,83.71,18.48,6.38,5.5,11.66,0,0,0,0,917.4,42.02
1.4099,307.56,119.35,106.48,86.46,9.46,134.53,57.97,83.71,18.48,6.38,5.5,11.66,0,0,0,0,905.52,42.02
1.4199,293.04,116.16,106.48,86.46,9.46,137.39,65.34,88.99,18.48,6.38,0,9.35,0,0,0,0,903.32,34.21
1.4299,281.38,111.43,104.72,88.11,11.11,143.11,69.08,94.27,18.48,6.38,5.5,9.35,0,0,0,0,903.21,39.71
1.4399,264,105.16,101.2,91.19,11.11,145.97,76.56,94.27,18.48,6.38,5.5,9.35,0,0,0,0,889.46,39.71
1.4499,249.48,100.43,99.44,92.84,11.11,151.69,84.04,99.55,18.48,6.38,0,9.35,0,0,0,0,888.58,34.21
1.4599,232.1,94.16,94.27,94.38,11.11,160.27,87.78,104.83,18.48,6.38,0,9.35,0,0,0,0,878.9,34.21
1.4699,214.83,89.43,90.75,97.57,11.11,166.1,99,110.22,18.48,6.38,0,6.93,0,0,0,0,879.01,31.79
1.4799,197.89,83.16,85.47,100.65,12.65,174.68,106.48,114.95,18.48,6.38,0,6.93,0,0,0,0,875.93,31.79
1.4899,183.7,75.35,80.19,103.84,12.65,183.26,113.74,124.63,18.48,6.38,0,6.93,0,0,0,0,877.36,31.79
1.4999,166.65,69.08,75.02,107.03,12.65,194.7,120.78,129.47,18.48,6.38,0,6.93,0,0,0,0,875.38,31.79
1.5099,148.83,61.16,67.98,108.57,12.65,203.28,127.82,139.15,18.48,6.38,0,6.93,0,0,0,0,869.44,31.79
1.5199,131.01,53.68,60.94,113.52,12.65,211.86,138.49,143.99,18.48,6.38,0,6.93,0,0,0,0,866.14,31.79
1.5299,110.22,46.64,52.14,115.17,12.65,223.3,149.05,153.67,16.17,6.38,0,4.62,0,0,0,0,862.84,27.17
1.5399,90.97,38.06,44.88,118.47,12.65,234.52,156.2,163.35,16.17,6.38,0,6.93,0,0,0,0,859.1,29.48
1.5499,68.53,32.45,35.97,118.47,12.65,242.88,166.76,168.19,16.17,6.38,0,6.93,0,0,0,0,845.9,29.48
1.5599,53.13,25.41,28.71,118.47,12.65,254.1,174.02,178.86,16.17,6.38,0,6.93,0,0,0,0,845.35,29.48
1.5699,43.01,18.37,23.32,116.82,11.11,262.46,181.5,184.25,13.86,6.38,0,6.93,0,0,0,0,840.84,27.17
1.5799,35.42,15.51,19.69,110.22,9.46,270.82,185.24,195.03,13.86,6.38,0,6.93,0,0,0,0,841.39,27.17
1.5899,32.89,14.08,17.93,103.84,9.46,276.43,188.98,200.42,13.86,6.38,0,6.93,0,0,0,3.74,844.03,30.91
1.5999,30.36,11.22,14.3,94.38,7.92,285.01,188.98,211.2,13.86,6.38,0,6.93,0,0,0,3.74,843.37,30.91
1.6099,25.3,9.79,12.54,83.38,6.27,287.87,188.98,216.59,13.86,6.38,0,6.93,0,0,0,0,830.72,27.17
1.6199,25.3,8.47,10.78,72.27,4.73,290.73,188.98,226.71,13.86,6.38,0,6.93,0,0,0,3.74,827.97,30.91
1.6299,25.3,8.47,10.78,61.27,4.73,293.59,188.98,236.28,13.86,6.38,0,6.93,0,0,0,3.74,829.4,30.91
1.6399,22.77,7.04,8.91,49.94,3.08,293.59,181.5,241.01,13.86,6.38,0,6.93,0,0,0,0,807.84,27.17
1.6499,22.77,7.04,8.91,40.7,0,287.87,177.76,250.58,16.17,6.38,0,6.93,0,0,0,0,795.63,29.48
1.6599,22.77,7.04,8.91,30.14,0,276.43,166.76,260.15,16.17,6.38,0,6.93,0,0,0,3.74,772.2,33.22
1.6699,20.24,5.61,8.91,22.33,0,262.46,159.72,269.72,16.17,6.38,0,6.93,0,0,0,3.74,748.99,33.22
1.6799,17.71,5.61,7.15,17.05,0,242.88,152.68,279.29,20.79,6.38,0,6.93,0,4.51,0,3.74,722.37,42.35
1.6899,17.71,5.61,7.15,11.77,0,217.58,145.53,288.53,37.07,6.38,0,6.93,0,4.51,0,0,693.88,54.89
1.6999,15.18,4.18,7.15,7.81,0,197.56,134.97,297.77,97.79,8.03,0,9.35,0,4.51,0,3.74,664.62,123.42
1.7099,15.18,4.18,5.39,5.17,0,180.4,127.82,302.39,256.3,16.06,8.25,11.66,0,11.44,0,7.59,640.53,311.3
1.7199,12.65,2.75,5.39,2.53,0,160.27,124.3,307.01,327.36,30.69,19.25,13.97,0,13.75,0,9.57,614.9,414.59
1.7299,10.12,2.75,5.39,2.53,0,143.11,124.3,307.01,376.09,54.89,44,16.39,0,18.37,0,9.57,595.21,519.31
1.7399,5.06,2.75,5.39,0,0,128.81,124.3,302.39,385.22,79.75,62.48,23.43,0,22.88,0,9.57,568.7,583.33
1.7499,0,0,3.52,0,0,114.51,127.82,293.15,376.09,104.83,74.69,37.51,0,25.19,0,11.44,539,629.75
1.7599,0,0,3.52,0,0,105.71,124.3,274.45,360.91,123.09,87.01,53.9,4.62,27.5,0,13.42,507.98,670.45
1.7699,0,0,3.52,0,0,90.97,117.26,250.58,351.78,136.07,91.96,73.15,4.62,32.12,0,15.29,462.33,704.99
1.7799,0,0,3.52,0,0,79.2,102.74,200.42,348.7,143.55,101.75,96.36,7.04,41.25,0,21.12,385.88,759.77
1.7899,0,0,3.52,0,0,70.4,91.52,158.51,354.86,152.79,109.12,99.33,7.04,45.87,4.95,26.84,323.95,800.8
1.7999,0,0,0,0,0,61.6,80.3,139.15,363.88,158.4,116.16,102.19,7.04,52.8,10.01,30.69,281.05,841.17
1.8099,0,0,0,0,0,52.58,69.08,110.22,373.01,164.01,120.67,105.16,7.04,55.11,10.01,32.67,231.88,867.68
1.8199,0,0,0,0,0,40.26,57.97,88.99,382.14,167.75,125.18,105.16,7.04,55.11,12.54,34.54,187.22,889.46
1.8299,0,0,0,0,0,27.83,44.99,78.32,388.3,169.62,129.8,105.16,7.04,57.31,15.07,34.54,151.14,906.84
1.8399,0,0,0,0,0,12.32,28.93,44,391.38,171.49,132,102.19,7.04,57.31,17.6,34.54,85.25,913.55
1.8499,0,0,3.52,2.53,0,0,9.57,8.8,394.46,169.62,134.31,105.16,7.04,57.31,17.6,34.54,24.42,920.04
1.8599,0,2.75,3.52,2.53,0,0,0,0,391.38,169.62,134.31,105.16,7.04,59.62,17.6,34.54,8.8,919.27
1.8699,0,0,0,2.53,0,0,0,0,388.3,167.75,136.51,105.16,9.35,59.62,20.13,34.54,2.53,921.36
1.8799,0,2.75,0,2.53,0,0,0,0,382.14,165.88,134.31,105.16,9.35,59.62,20.13,36.52,5.28,913.11
1.8899,5.06,2.75,0,2.53,0,0,0,0,373.01,164.01,132,108.02,7.04,61.82,20.13,36.52,10.34,902.55
1.8999,5.06,2.75,0,3.85,0,0,0,0,357.83,160.27,129.8,110.99,9.35,64.13,20.13,36.52,11.66,889.02
1.9099,7.59,2.75,0,3.85,0,0,0,0,342.65,156.53,127.49,113.96,9.35,68.64,22.66,36.52,14.19,877.8
1.9199,12.65,2.75,0,3.85,0,0,0,0,324.28,152.79,122.98,116.93,9.35,70.84,22.66,36.52,19.25,856.35
1.9299,5.06,2.75,0,3.85,0,0,0,0,302.61,147.29,120.67,119.9,9.35,75.46,22.66,36.52,11.66,834.46
1.9399,5.06,2.75,3.52,3.85,0,0,0,0,287.1,141.68,118.36,125.84,9.35,82.17,25.19,38.39,15.18,828.08
1.9499,5.06,2.75,0,3.85,0,0,0,0,265.54,134.2,113.85,131.78,9.35,86.68,25.19,38.39,11.66,804.98
1.9599,5.06,2.75,0,3.85,0,0,0,0,250.14,126.83,111.65,137.72,9.35,93.5,27.72,40.37,11.66,797.28
1.9699,5.06,2.75,0,3.85,0,0,0,0,228.58,121.22,109.12,140.69,9.35,102.52,30.14,40.37,11.66,781.99
1.9799,0,2.75,0,3.85,0,0,0,0,210.32,111.98,104.17,146.63,9.35,109.34,35.2,42.24,6.6,769.23
