Time(sec),VGRF_left_s1,VGRF_left_s2,VGRF_left_s3,VGRF_left_s4,VGRF_left_s5,VGRF_left_s6,VGRF_left_s7,VGRF_left_s8,VGRF_right_s1,VGRF_right_s2,VGRF_right_s3,VGRF_right_s4,VGRF_right_s5,VGRF_right_s6,VGRF_right_s7,VGRF_right_s8,Total_force_left,Total_force_right
0.0100,134.2,106.15,51.15,20.9,17.27,23.21,20.24,9.02,164.45,133.32,150.59,40.26,12.65,79.53,30.25,36.19,382.14,647.24
0.0200,136.18,106.15,51.15,18.81,15.18,19.03,18.04,9.02,171.38,137.72,150.59,40.26,10.56,74.69,26.18,33.44,373.56,644.82
0.0300,138.16,106.15,51.15,16.72,12.98,16.94,13.53,6.71,178.42,142.01,152.9,37.73,10.56,72.27,24.2,30.69,362.34,648.78
0.0400,140.25,104.17,49.17,16.72,10.78,14.74,11.22,6.71,183.04,144.21,152.9,37.73,8.47,69.85,20.13,25.08,353.76,641.41
0.0500,142.23,104.17,49.17,14.63,8.58,10.56,9.02,6.71,190.08,148.61,152.9,35.2,8.47,67.54,18.15,25.08,345.07,646.03
0.0600,142.23,104.17,49.17,12.54,8.58,8.47,9.02,4.51,194.81,150.7,152.9,35.2,6.27,62.7,16.06,22.33,338.69,640.97
0.0700,146.19,104.17,49.17,10.45,6.49,6.27,6.71,0,199.43,152.9,152.9,32.67,6.27,62.7,14.08,19.47,329.45,640.42
0.0800,148.17,104.17,49.17,8.36,4.29,4.18,4.51,0,204.16,157.3,150.59,32.67,6.27,60.28,12.1,16.72,322.85,640.09
0.0900,150.15,104.17,49.17,6.27,0,0,4.51,0,206.47,157.3,150.59,32.67,4.18,57.97,10.01,16.72,314.27,635.91
0.1000,152.13,104.17,49.17,6.27,0,0,0,0,208.78,159.39,150.59,30.14,4.18,57.97,10.01,16.72,311.74,637.78
0.1100,154.11,104.17,49.17,4.18,0,0,0,0,208.78,159.39,150.59,30.14,4.18,57.97,10.01,13.86,311.63,634.92
0.1200,156.09,104.17,49.17,4.18,0,0,0,0,211.09,159.39,148.28,30.14,4.18,55.44,10.01,16.72,313.61,635.25
0.1300,158.07,104.17,49.17,0,0,0,0,0,208.78,157.3,148.28,30.14,4.18,57.97,12.1,16.72,311.41,635.47
0.1400,160.05,106.15,49.17,0,0,0,0,0,206.47,157.3,148.28,30.14,4.18,57.97,12.1,16.72,315.37,633.16
0.1500,162.03,108.13,49.17,0,0,0,0,0,204.16,155.1,145.97,30.14,6.27,57.97,12.1,16.72,319.33,628.43
0.1600,164.01,110.22,49.17,0,0,0,0,0,199.43,152.9,145.97,32.67,6.27,57.97,14.08,16.72,323.4,626.01
0.1700,168.08,114.62,49.17,0,0,0,0,0,197.12,150.7,143.66,32.67,6.27,60.28,16.06,16.72,331.87,623.48
0.1800,172.15,119.02,49.17,0,0,0,0,0,190.08,148.61,141.35,30.14,6.27,60.28,16.06,16.72,340.34,609.51
0.1900,174.13,125.62,49.17,4.18,0,0,0,0,183.04,144.21,139.15,30.14,8.47,62.7,20.13,19.47,353.1,607.31
0.2000,178.2,132.22,49.17,6.27,0,0,0,0,173.69,137.72,134.53,32.67,8.47,62.7,22.11,19.47,365.86,591.36
0.2100,184.25,138.82,51.15,8.36,0,0,0,0,162.14,133.32,127.6,35.2,8.47,65.12,26.18,22.33,382.58,580.36
0.2200,188.32,147.62,51.15,10.45,0,0,0,0,146.3,124.63,118.36,35.2,10.56,67.54,28.27,22.33,397.54,553.19
0.2300,196.46,158.62,53.13,12.54,0,0,0,0,128.04,113.85,109.45,35.2,10.56,69.85,32.23,25.08,420.75,524.26
0.2400,204.49,169.51,55.11,16.72,0,6.27,4.51,0,104.94,101.09,96.36,37.73,12.65,74.69,36.3,27.83,456.61,491.59
0.2500,214.61,181.94,57.31,20.9,4.29,10.56,4.51,0,78.65,84.04,81.18,37.73,12.65,77.11,40.37,30.69,494.12,442.42
0.2600,224.84,196.46,59.51,25.08,4.29,14.74,6.71,4.51,52.58,67.1,65.89,37.73,14.74,79.53,46.42,33.44,536.14,397.43
0.2700,236.94,210.98,61.71,27.17,6.49,21.12,6.71,4.51,32.01,45.98,49.39,35.2,16.94,81.84,50.38,39.05,575.63,350.79
0.2800,249.04,227.59,64.02,31.35,8.58,25.41,9.02,4.51,22.88,29.26,32.23,30.14,16.94,81.84,56.54,39.05,619.52,308.88
0.2900,261.14,242.22,66.22,35.53,10.78,31.79,9.02,6.71,15.95,18.81,18.92,25.19,19.03,79.53,61.27,41.8,663.41,280.5
0.3000,271.26,254.76,68.42,37.62,12.98,38.06,11.22,6.71,11.44,12.54,11.33,15.07,16.94,74.69,66.11,44.66,701.03,252.78
0.3100,279.29,267.3,70.62,41.8,15.18,44.44,13.53,6.71,6.82,10.45,7.59,4.95,12.65,62.7,63.69,50.16,738.87,219.01
0.3200,285.23,275.66,72.93,43.89,17.27,50.82,15.73,9.02,4.51,8.36,3.74,0,6.27,45.32,58.85,58.63,770.55,185.68
0.3300,291.06,284.02,75.13,48.07,19.47,55.11,18.04,9.02,4.51,6.27,0,0,0,27.72,44.33,64.35,799.92,147.18
0.3400,293.04,288.2,77.33,50.16,23.87,62.15,20.24,9.02,0,6.27,0,0,0,10.01,28.27,58.63,824.01,103.18
0.3500,294.91,290.18,77.33,52.25,25.96,66.77,22.55,11.22,0,6.27,0,0,0,0,12.1,53.02,841.17,71.39
0.3600,294.91,292.27,79.53,54.34,28.16,69.19,24.75,11.22,0,6.27,0,0,0,0,0,39.05,854.37,45.32
0.3700,296.89,292.27,81.84,54.34,32.56,71.5,27.06,11.22,0,4.18,0,0,0,0,0,19.47,867.68,23.65
0.3800,294.91,292.27,81.84,54.34,36.85,73.81,31.57,11.22,0,4.18,0,0,0,0,0,0,876.81,4.18
0.3900,293.04,290.18,81.84,56.54,39.05,73.81,33.77,13.53,0,4.18,0,0,0,0,0,0,881.76,4.18
0.4000,291.06,286.11,81.84,56.54,43.34,76.23,36.08,13.53,0,4.18,0,0,0,0,0,0,884.73,4.18
0.4100,289.08,284.02,84.04,56.54,47.74,76.23,38.28,13.53,0,4.18,0,0,0,0,0,0,889.46,4.18
0.4200,283.25,277.75,84.04,56.54,52.03,78.54,40.59,13.53,0,4.18,0,0,0,0,0,0,886.27,4.18
0.4300,279.29,273.57,84.04,54.34,56.43,78.54,45.1,15.73,0,4.18,0,0,0,0,0,0,887.04,4.18
0.4400,271.26,267.3,84.04,54.34,62.92,78.54,47.3,15.73,0,4.18,0,0,0,0,0,0,881.43,4.18
0.4500,265.21,258.94,84.04,54.34,67.21,80.85,51.81,15.73,0,4.18,0,0,0,0,0,0,878.13,4.18
0.4600,257.07,252.67,81.84,56.54,73.59,80.85,54.12,15.73,0,4.18,0,0,0,0,0,0,872.41,4.18
0.4700,246.95,244.31,81.84,56.54,80.08,83.27,60.94,15.73,0,4.18,0,0,0,0,0,0,869.66,4.18
0.4800,236.94,233.86,79.53,58.63,86.57,85.58,65.67,18.04,0,4.18,0,0,0,0,0,0,864.82,4.18
0.4900,224.84,225.5,79.53,60.72,92.95,90.31,72.82,18.04,0,4.18,0,0,0,0,0,0,864.71,4.18
0.5000,214.61,215.05,77.33,62.81,101.53,95.04,79.86,18.04,0,0,0,0,0,0,0,0,864.27,0
0.5100,200.53,206.8,75.13,65.01,110.22,99.66,84.59,20.24,0,0,0,0,0,0,0,0,862.18,0
0.5200,188.32,198.55,72.93,69.19,118.91,104.39,91.74,20.24,0,4.18,0,0,0,0,0,0,864.27,4.18
0.5300,174.13,188.21,68.42,73.48,127.6,111.43,98.78,22.55,0,4.18,0,0,0,0,0,0,864.6,4.18
0.5400,160.05,179.85,64.02,77.66,136.29,118.58,105.93,22.55,0,4.18,0,0,0,0,0,0,864.93,4.18
0.5500,146.19,169.51,59.51,81.95,144.98,125.73,115.28,24.75,0,4.18,0,0,0,0,0,0,867.9,4.18
0.5600,130.24,158.62,55.11,86.13,153.67,132.99,119.79,24.75,0,0,0,0,0,0,0,0,861.3,0
0.5700,114.4,147.62,49.17,92.51,162.36,140.14,126.61,27.06,0,0,0,0,0,0,0,0,859.87,0
0.5800,97.13,134.42,43.23,96.8,168.96,144.98,133.43,27.06,0,0,0,0,0,0,0,0,846.01,0
0.5900,77.55,121.22,37.29,100.98,177.76,152.13,137.94,29.26,0,0,0,0,0,0,0,0,834.13,0
0.6000,60.06,106.15,31.46,105.27,184.36,159.28,144.76,29.26,0,0,0,0,0,0,0,0,820.6,0
0.6100,45.54,90.31,25.52,107.36,190.96,164.12,149.38,29.26,0,0,0,0,0,0,0,0,802.45,0
0.6200,33.11,72.38,19.58,111.65,195.36,171.16,156.09,29.26,0,4.18,0,0,0,0,0,0,788.59,4.18
0.6300,24.75,50.82,11.77,113.63,202.07,175.78,160.71,29.26,0,4.18,0,0,0,0,0,0,768.79,4.18
0.6400,20.68,32.01,9.79,115.72,206.47,180.4,165.22,31.57,0,4.18,0,0,0,0,0,0,761.86,4.18
0.6500,14.41,16.94,5.83,115.72,210.87,187.22,172.15,31.57,6.82,4.18,0,0,0,0,0,0,754.71,11
0.6600,12.32,11.22,5.83,111.65,210.87,194.15,181.5,31.57,9.13,4.18,0,0,0,0,0,0,759.11,13.31
0.6700,8.25,7.48,3.85,105.27,208.67,198.66,190.74,31.57,13.64,4.18,0,0,0,0,0,0,754.49,17.82
0.6800,6.16,5.61,3.85,96.8,206.47,205.59,200.09,31.57,18.26,4.18,0,0,0,0,0,0,756.14,22.44
0.6900,4.07,3.74,0,90.42,199.87,212.41,211.75,31.57,25.08,4.18,0,0,0,0,0,0,753.83,29.26
0.7000,4.07,3.74,0,81.95,193.16,219.34,223.41,33.77,38.83,4.18,0,0,0,0,0,0,759.44,43.01
0.7100,0,0,0,73.48,182.16,226.27,237.16,36.08,76.23,4.18,0,0,0,0,0,0,755.15,80.41
0.7199,0,0,0,65.01,171.16,230.78,248.6,38.28,143.99,6.27,0,0,0,0,0,0,753.83,150.26
0.7299,0,0,0,54.34,155.87,235.4,262.35,40.59,183.04,10.45,3.74,0,0,0,0,0,748.55,197.23
0.7399,0,0,0,41.8,140.58,235.4,273.9,45.1,192.39,16.72,20.9,0,0,0,0,0,736.78,230.01
0.7499,0,0,0,29.26,123.2,235.4,285.23,49.61,190.08,27.17,37.95,0,0,0,0,0,722.7,255.2
0.7599,0,0,0,16.72,105.82,228.47,296.67,54.12,187.77,41.8,55.11,0,0,0,0,0,701.8,284.68
0.7699,0,0,0,8.36,88.66,214.72,305.69,60.72,180.73,56.43,72.49,0,0,0,0,0,678.15,309.65
0.7799,0,0,0,6.27,69.3,196.46,312.51,69.41,176.11,73.48,94.27,0,0,0,0,0,653.95,343.86
0.7899,0,0,0,4.18,49.94,171.16,319.33,78.21,173.69,92.51,113.85,0,0,0,0,0,622.82,380.05
0.7999,0,0,0,4.18,32.56,147.29,319.33,91.19,171.38,111.65,132.22,4.95,0,0,0,0,594.55,420.2
0.8099,0,0,0,6.27,25.96,118.58,308,104.28,171.38,133.32,145.97,22.66,0,37.73,0,0,563.09,511.06
0.8199,0,0,0,6.27,23.87,92.62,271.59,122.21,176.11,139.92,155.21,27.72,0,55.44,0,8.36,516.56,562.76
0.8299,0,0,0,6.27,23.87,69.19,209.44,142.78,178.42,144.21,166.76,32.67,4.18,74.69,6.05,16.72,451.55,623.7
0.8399,0,0,0,6.27,23.87,44.44,144.76,158.84,183.04,148.61,176.11,35.2,4.18,84.26,12.1,22.33,378.18,665.83
0.8499,0,0,0,8.36,21.67,27.5,98.78,158.84,185.46,152.9,180.73,40.26,8.47,89.1,16.06,25.08,315.15,698.06
0.8599,0,0,0,8.36,19.47,23.21,54.12,133.65,190.08,159.39,185.46,42.79,8.47,96.25,22.11,30.69,238.81,735.24
0.8699,0,0,0,6.27,17.27,21.12,22.55,89.1,192.39,163.79,190.08,45.32,10.56,101.09,26.18,30.69,156.31,760.1
0.8799,0,0,0,6.27,15.18,14.74,13.53,56.32,194.81,165.99,192.39,47.85,10.56,105.82,28.27,33.44,106.04,779.13
0.8899,0,0,0,6.27,12.98,10.56,9.02,38.28,197.12,172.37,192.39,52.91,12.65,110.66,32.23,33.44,77.11,803.77
0.8999,0,0,0,4.18,8.58,6.27,4.51,22.55,197.12,176.55,192.39,57.97,12.65,118.03,34.32,36.19,46.09,825.22
0.9099,0,0,0,0,6.49,0,0,13.53,197.12,180.73,190.08,62.92,12.65,123.09,36.3,36.19,20.02,839.08
0.9199,0,0,0,0,4.29,0,0,0,199.43,184.91,187.77,67.98,12.65,128.15,36.3,39.05,4.29,856.24
0.9299,0,0,0,0,0,0,0,0,197.12,189.09,185.46,72.93,12.65,133.21,36.3,39.05,0,865.81
0.9399,0,0,0,0,0,0,0,0,194.81,193.27,183.04,77.99,12.65,138.27,36.3,41.8,0,878.13
0.9499,0,0,0,0,0,0,0,0,192.39,193.27,178.42,82.94,12.65,143.22,36.3,41.8,0,880.99
0.9599,0,0,0,0,0,0,0,0,187.77,195.36,176.11,88,12.65,148.28,36.3,44.66,0,889.13
0.9699,0,0,0,0,0,0,0,0,183.04,195.36,171.38,95.48,12.65,153.34,36.3,41.8,0,889.35
0.9799,0,0,0,0,0,0,0,0,176.11,193.27,164.45,100.54,12.65,158.4,36.3,44.66,0,886.38
0.9899,0,0,0,0,0,0,0,0,166.76,191.18,159.83,102.96,12.65,160.93,36.3,44.66,0,875.27
0.9999,0,0,0,0,0,0,0,0,157.63,184.91,152.9,105.49,14.74,163.46,38.28,47.41,0,864.82
1.0099,0,0,0,0,0,0,0,0,148.5,180.73,148.28,110.55,14.74,168.52,40.37,47.41,0,859.1
1.0199,0,0,0,0,0,0,0,0,141.68,174.46,145.97,110.55,14.74,171.05,42.35,47.41,0,848.21
1.0299,0,0,0,0,0,0,0,0,134.86,170.28,143.66,113.08,16.94,173.36,46.42,50.16,0,848.76
1.0399,0,0,0,0,0,0,0,0,128.04,163.79,139.15,113.08,19.03,178.09,52.47,53.02,0,846.67
1.0499,0,0,0,0,0,0,0,0,119.02,157.3,136.84,115.5,21.12,180.4,61.27,55.77,0,847.22
1.0599,0,0,0,0,0,0,0,0,112.09,150.7,134.53,118.03,23.21,185.13,70.84,55.77,0,850.3
1.0699,0,0,0,0,0,0,0,0,104.94,144.21,129.91,120.45,27.5,189.86,80.41,58.63,0,855.91
1.0799,0,0,0,0,0,0,0,0,92.95,135.52,125.29,122.98,29.59,196.9,89.98,61.49,0,854.7
1.0899,0,0,0,0,0,0,0,0,81.07,124.63,118.36,122.98,31.79,201.63,104.39,64.35,0,849.2
1.0999,0,0,0,0,0,0,0,0,69.08,113.85,111.65,125.51,35.97,206.36,118.58,70.18,0,851.18
1.1099,0,0,0,0,0,0,0,0,57.2,101.09,105.05,125.51,38.06,211.09,132.55,78.98,0,849.53
1.1199,0,0,0,0,0,0,0,0,47.96,90.42,96.36,127.93,42.35,218.13,146.52,87.67,0,857.34
1.1299,0,0,0,0,0,0,0,0,38.83,79.86,87.67,127.93,46.53,225.39,160.49,99.33,0,866.03
1.1399,0,0,0,0,0,0,0,0,32.01,69.19,78.98,130.46,48.73,230.34,172.37,110.99,0,873.07
1.1499,0,0,0,0,0,0,0,0,27.39,58.63,68.09,132.88,50.82,237.6,184.58,121.11,0,881.1
1.1599,0,0,0,0,0,0,0,0,22.88,50.16,55.11,132.88,52.91,244.97,199.21,131.23,0,889.35
1.1699,0,0,0,0,0,0,0,0,20.57,41.8,45.54,132.88,52.91,252.34,211.42,141.35,0,898.81
1.1799,0,0,0,0,0,0,0,0,18.26,33.44,36.08,130.46,55.11,257.18,225.94,148.94,0,905.41
1.1899,0,0,0,0,0,0,0,0,15.95,25.08,28.49,122.98,55.11,262.13,237.93,159.06,0,906.73
1.1999,0,0,0,0,0,0,0,0,13.64,18.81,18.92,113.08,55.11,264.55,252.34,166.76,0,903.21
1.2099,0,0,0,0,0,0,0,0,11.44,14.63,13.2,98.01,55.11,266.97,266.75,176.77,0,902.88
1.2199,0,0,0,0,0,0,0,0,6.82,10.45,9.46,85.47,50.82,266.97,283.25,186.78,0,900.02
1.2299,0,0,0,0,0,0,0,0,4.51,8.36,5.61,70.4,46.53,266.97,297,196.79,0,896.17
1.2399,0,0,0,0,0,0,0,0,0,8.36,3.74,60.39,40.26,266.97,310.86,206.8,0,897.38
1.2499,0,0,0,0,0,0,0,0,0,6.27,3.74,47.85,33.88,266.97,322.3,216.81,0,897.82
1.2599,0,0,0,0,0,0,0,0,0,6.27,0,37.73,29.59,266.97,333.74,224.4,0,898.7
1.2699,0,0,0,0,0,0,0,0,0,4.18,0,25.19,21.12,262.13,340.56,233.86,0,887.04
1.2799,0,0,0,0,0,0,0,0,0,4.18,0,12.54,12.65,257.18,347.27,240.9,0,874.72
1.2899,10.34,0,0,0,0,0,0,0,0,4.18,0,7.48,6.27,242.55,347.27,247.94,10.34,855.69
1.2999,53.79,0,0,0,0,0,0,0,0,4.18,0,4.95,4.18,225.39,340.56,254.98,53.79,834.24
1.3099,148.17,0,0,0,0,0,0,0,0,0,0,4.95,0,208.67,329.23,262.02,148.17,804.87
1.3199,234.85,15.07,0,0,0,0,0,0,0,0,0,4.95,0,189.86,317.68,266.75,249.92,779.24
1.3299,263.12,74.36,3.85,0,0,0,0,0,0,0,0,4.95,4.18,168.52,299.31,269.06,341.33,746.02
1.3399,265.21,132.22,5.83,0,0,0,0,0,0,0,0,7.48,4.18,145.75,271.59,271.48,403.26,700.48
1.3499,265.21,192.28,9.79,0,0,0,0,0,0,0,0,7.48,4.18,120.56,237.93,271.48,467.28,641.63
1.3599,255.09,242.22,19.58,0,0,0,0,0,0,0,0,10.01,6.27,101.09,191.84,271.48,516.89,580.69
1.3699,242.99,267.3,33.44,29.26,0,6.27,0,0,0,0,0,10.01,8.47,77.11,132.55,269.06,579.26,497.2
1.3799,246.95,277.75,47.19,48.07,0,48.73,0,4.51,0,0,0,10.01,6.27,42.79,75.68,257.4,673.2,392.15
1.3899,253,279.95,57.31,54.34,0,78.54,11.22,13.53,0,0,0,10.01,6.27,25.19,32.23,191.73,747.89,265.43
1.3999,257.07,281.93,66.22,56.54,4.29,92.62,18.04,18.04,0,0,0,10.01,6.27,22.66,26.18,131.23,794.75,196.35
1.4099,261.14,284.02,72.93,58.63,12.98,99.66,29.26,20.24,0,0,0,7.48,4.18,17.6,20.13,110.99,838.86,160.38
1.4199,267.19,286.11,75.13,58.63,17.27,104.39,38.28,22.55,0,0,0,7.48,0,12.54,12.1,87.67,869.55,119.79
1.4299,269.17,288.2,79.53,60.72,19.47,109.12,42.79,24.75,0,0,0,4.95,0,10.01,8.03,47.41,893.75,70.4
1.4399,271.26,292.27,79.53,62.81,21.67,111.43,45.1,24.75,0,0,0,4.95,0,7.48,3.96,11.11,908.82,27.5
1.4499,273.24,294.36,79.53,65.01,21.67,113.85,47.3,24.75,0,0,0,4.95,0,4.95,0,0,919.71,9.9
1.4599,273.24,298.43,77.33,67.1,21.67,116.16,45.1,24.75,0,0,0,0,0,4.95,0,0,923.78,4.95
1.4699,271.26,300.52,75.13,69.19,19.47,118.58,42.79,24.75,0,0,0,0,0,0,0,0,921.69,0
1.4799,265.21,298.43,70.62,71.28,17.27,118.58,40.59,22.55,0,0,0,0,0,0,0,0,904.53,0
1.4899,257.07,296.45,64.02,73.48,15.18,118.58,38.28,22.55,0,0,0,0,0,0,0,0,885.61,0
1.4999,249.04,294.36,59.51,75.57,15.18,121,36.08,22.55,0,0,0,0,0,0,0,0,873.29,0
1.5099,238.92,288.2,55.11,75.57,15.18,121,33.77,22.55,0,0,0,0,0,0,0,0,850.3,0
1.5199,228.8,281.93,51.15,77.66,15.18,121,33.77,22.55,0,0,0,0,0,0,0,0,832.04,0
1.5299,218.68,271.48,49.17,77.66,15.18,118.58,33.77,22.55,0,0,0,0,0,0,0,0,807.07,0
1.5399,208.56,263.12,49.17,77.66,17.27,118.58,36.08,22.55,0,0,0,0,0,0,0,0,792.99,0
1.5499,200.53,254.76,47.19,79.75,21.67,116.16,38.28,22.55,0,0,0,0,0,0,0,0,780.89,0
1.5599,192.39,244.31,47.19,81.95,23.87,116.16,42.79,24.75,0,0,0,0,0,0,0,0,773.41,0
1.5699,182.27,235.95,47.19,84.04,28.16,118.58,47.3,24.75,0,0,0,0,0,0,0,0,768.24,0
1.5799,172.15,225.5,45.21,88.33,32.56,121,51.81,24.75,0,0,0,0,0,0,0,0,761.31,0
1.5899,162.03,217.14,45.21,92.51,36.85,125.73,56.32,24.75,0,0,0,0,0,0,0,0,760.54,0
1.5999,150.15,206.8,43.23,98.89,41.25,130.57,60.94,27.06,0,0,0,0,0,0,0,0,758.89,0
1.6099,138.16,198.55,41.25,105.27,45.54,135.41,68.09,27.06,0,0,0,0,0,0,0,0,759.33,0
1.6199,124.3,186.12,39.27,111.65,52.03,142.56,75.13,29.26,0,0,0,0,0,0,0,0,760.32,0
1.6299,110.22,173.69,37.29,117.81,58.63,149.71,84.59,29.26,0,0,0,0,0,0,0,0,761.2,0
1.6399,94.93,160.82,35.42,121.99,67.21,156.97,94.05,31.57,0,0,0,0,0,0,0,0,762.96,0
1.6499,79.64,143.22,31.46,128.15,75.79,161.7,105.93,31.57,0,0,0,0,0,0,0,0,757.46,0
1.6599,64.46,127.82,29.48,132.33,84.37,168.96,115.28,33.77,0,0,0,0,0,0,0,0,756.47,0
1.6699,51.7,110.22,25.52,136.4,95.15,175.78,126.61,33.77,0,0,0,0,0,0,0,0,755.15,0
1.6799,39.27,92.29,21.56,138.49,105.82,180.4,135.74,36.08,0,0,0,0,0,0,0,0,749.65,0
1.6899,31.02,74.36,15.73,142.67,116.71,184.91,147.07,36.08,0,0,0,0,0,0,0,0,748.55,0
1.6999,24.75,56.54,11.77,144.76,125.4,191.84,156.09,36.08,0,0,0,0,0,0,0,0,747.23,0
1.7099,20.68,39.49,7.81,146.74,131.89,196.46,165.22,36.08,0,0,0,0,0,0,0,0,744.37,0
1.7199,16.5,24.42,5.83,148.83,138.49,203.28,174.46,38.28,0,0,0,0,0,0,0,0,750.09,0
1.7299,12.32,15.07,5.83,146.74,142.78,207.9,183.81,38.28,0,0,0,0,0,0,0,0,752.73,0
1.7399,8.25,11.22,3.85,142.67,144.98,214.72,193.05,38.28,0,0,0,0,0,0,0,0,757.02,0
1.7499,6.16,7.48,0,138.49,144.98,223.96,204.71,38.28,0,0,0,0,0,0,0,0,764.06,0
1.7599,4.07,5.61,0,130.24,140.58,230.78,214.06,38.28,0,0,0,0,0,0,0,0,763.62,0
1.7699,0,3.74,0,121.99,136.29,237.71,225.61,38.28,0,0,0,0,0,0,0,0,763.62,0
1.7799,0,3.74,0,111.65,129.8,246.95,239.47,40.59,0,0,0,0,0,0,0,0,772.2,0
1.7899,0,0,0,103.07,121,256.19,250.91,42.79,0,0,0,0,0,0,0,0,773.96,0
1.7999,0,0,0,90.42,110.22,263.12,262.35,45.1,0,0,0,0,0,0,0,0,771.21,0
1.8099,0,0,0,77.66,97.24,270.05,273.9,49.61,22.88,0,0,0,0,0,0,0,768.46,22.88
1.8199,0,0,0,62.81,84.37,274.67,285.23,51.81,66.66,0,0,0,0,0,0,0,758.89,66.66
1.8299,0,0,0,48.07,69.3,276.98,294.36,56.32,178.42,0,0,0,0,0,0,0,745.03,178.42
1.8399,0,0,0,29.26,49.94,272.36,301.18,62.92,222.86,4.18,0,0,0,0,0,0,715.66,227.04
1.8499,0,0,0,14.63,32.56,260.81,305.69,71.61,290.29,6.27,0,0,0,0,0,0,685.3,296.56
1.8599,0,0,0,10.45,21.67,235.4,308,89.1,342.76,14.63,32.23,0,0,0,0,0,664.62,389.62
1.8699,0,0,0,10.45,19.47,198.66,294.36,108.68,333.63,41.8,87.67,0,0,0,0,0,631.62,463.1
1.8799,0,0,0,10.45,19.47,154.55,260.15,131.34,311.96,69.19,129.91,0,0,0,0,0,575.96,511.06
1.8899,0,0,0,12.54,21.67,111.43,202.4,161.15,287.87,96.8,157.52,0,0,0,0,0,509.19,542.19
1.8999,0,0,0,12.54,21.67,69.19,137.94,194.04,262.13,122.54,176.11,0,0,0,0,0,435.38,560.78
1.9099,0,0,0,12.54,19.47,31.79,77.55,210.76,241.34,152.9,190.08,4.95,0,0,0,0,352.11,589.27
1.9199,0,0,0,12.54,17.27,27.5,29.26,145.09,225.17,182.82,204.16,35.2,0,17.6,0,0,231.66,664.95
1.9299,0,0,0,10.45,15.18,21.12,18.04,67.32,222.86,187,220.55,47.85,0,50.38,0,0,132.11,728.64
1.9399,0,0,0,8.36,12.98,14.74,9.02,45.1,218.13,182.82,234.08,55.44,0,77.11,0,8.36,90.2,775.94
1.9499,0,0,0,6.27,8.58,8.47,0,31.57,215.82,180.73,247.61,60.39,0,101.09,0,16.72,54.89,822.36
1.9599,0,0,0,6.27,4.29,4.18,0,15.73,215.82,180.73,256.63,62.92,6.27,113.08,6.05,25.08,30.47,866.58
1.9699,0,0,0,4.18,0,0,0,4.51,215.82,180.73,265.76,62.92,8.47,120.56,12.1,27.83,8.69,894.19
1.9799,0,0,0,0,0,0,0,0,215.82,178.64,270.27,62.92,10.56,123.09,18.15,33.44,0,912.89
1.9899,0,0,0,0,0,0,0,0,215.82,176.55,272.47,62.92,14.74,125.62,26.18,36.19,0,930.49
1.9999,0,0,0,0,0,0,0,0,213.51,174.46,274.78,62.92,16.94,125.62,32.23,39.05,0,939.51
2.0099,0,0,0,0,0,0,0,0,211.09,170.28,272.47,62.92,16.94,125.62,36.3,39.05,0,934.67
2.0199,0,0,0,0,0,0,0,0,206.47,170.28,267.96,65.45,19.03,128.15,40.37,41.8,0,939.51
2.0299,0,0,0,0,0,0,0,0,199.43,168.19,261.25,67.98,19.03,130.68,42.35,41.8,0,930.71
2.0399,0,0,0,0,0,0,0,0,187.77,161.59,249.92,67.98,19.03,133.21,44.33,41.8,0,905.63
2.0499,0,0,0,0,0,0,0,0,176.11,155.1,238.59,70.4,19.03,133.21,44.33,44.66,0,881.43
2.0599,0,0,0,0,0,0,0,0,164.45,150.7,227.26,72.93,19.03,135.74,46.42,44.66,0,861.19
2.0699,0,0,0,0,0,0,0,0,155.32,146.41,215.82,75.46,19.03,138.27,46.42,44.66,0,841.39
2.0799,0,0,0,0,0,0,0,0,146.3,139.92,206.47,80.41,19.03,140.8,48.4,47.41,0,828.74
2.0899,0,0,0,0,0,0,0,0,137.17,135.52,199.43,82.94,21.12,143.22,52.47,47.41,0,819.28
2.0999,0,0,0,0,0,0,0,0,128.04,129.03,190.08,85.47,23.21,148.28,58.85,50.16,0,813.12
2.1099,0,0,0,0,0,0,0,0,116.71,122.54,183.04,88,25.41,153.34,66.11,53.02,0,808.17
2.1199,0,0,0,0,0,0,0,0,104.94,115.94,173.69,92.95,27.5,160.93,75.68,55.77,0,807.4
2.1299,0,0,0,0,0,0,0,0,92.95,107.47,162.14,98.01,29.59,165.99,85.25,58.63,0,800.03
2.1399,0,0,0,0,0,0,0,0,83.38,98.89,152.9,100.54,31.79,173.36,97.24,64.35,0,802.45
2.1498,0,0,0,0,0,0,0,0,69.08,90.42,141.35,102.96,33.88,180.4,111.65,73.15,0,802.89
2.1598,0,0,0,0,0,0,0,0,57.2,81.95,127.6,108.02,38.06,189.86,123.2,87.67,0,813.56
2.1698,0,0,0,0,0,0,0,0,45.76,71.28,113.85,113.08,42.35,194.59,137.17,102.19,0,820.27
2.1798,0,0,0,0,0,0,0,0,34.32,60.72,98.56,115.5,44.44,203.94,153.56,118.58,0,829.62
2.1898,0,0,0,0,0,0,0,0,27.39,52.25,83.38,118.03,46.53,211.09,167.53,131.23,0,837.43
2.1998,0,0,0,0,0,0,0,0,22.88,41.8,65.89,120.45,50.82,220.55,184.58,143.88,0,850.85
