Time(sec),VGRF_left_s1,VGRF_left_s2,VGRF_left_s3,VGRF_left_s4,VGRF_left_s5,VGRF_left_s6,VGRF_left_s7,VGRF_left_s8,VGRF_right_s1,VGRF_right_s2,VGRF_right_s3,VGRF_right_s4,VGRF_right_s5,VGRF_right_s6,VGRF_right_s7,VGRF_right_s8,Total_force_left,Total_force_right
0.0100,196.79,136.73,62.92,66.99,2.64,72.27,20.02,20.13,129.25,109.45,33.66,90.42,0,64.57,25.96,33.11,578.49,486.42
0.0200,199.87,139.81,62.92,66.99,2.64,70.62,18.59,18.81,120.89,103.29,32.23,90.42,0,66,31.13,33.11,580.25,477.07
0.0300,201.41,139.81,62.92,66.99,2.64,70.62,18.59,18.81,112.64,97.13,30.8,91.96,0,68.97,35.09,34.43,581.79,471.02
0.0400,204.49,141.35,62.92,66.99,2.64,69.08,20.02,20.13,106.04,90.97,29.26,91.96,3.3,70.4,37.62,34.43,587.62,463.98
0.0500,206.03,144.32,62.92,68.42,2.64,69.08,20.02,20.13,99.44,86.35,27.83,91.96,3.3,71.83,40.26,35.75,593.56,456.72
0.0600,209.11,145.86,64.35,68.42,2.64,69.08,21.45,18.81,91.19,81.73,27.83,91.96,4.95,73.37,42.79,35.75,599.72,449.57
0.0700,210.65,147.4,64.35,68.42,2.64,70.62,20.02,20.13,84.59,75.57,26.4,91.96,4.95,74.8,45.43,35.75,604.23,439.45
0.0800,210.65,148.94,65.78,69.85,2.64,72.27,21.45,20.13,76.34,70.95,23.43,91.96,4.95,76.23,48.07,37.18,611.71,429.11
0.0900,212.19,148.94,67.21,69.85,4.07,73.81,22.88,20.13,68.09,64.79,22,91.96,6.6,79.2,49.39,37.18,619.08,419.21
0.1000,213.73,150.48,67.21,71.28,4.07,77,25.74,20.13,56.54,57.2,19.03,91.96,6.6,80.63,50.6,37.18,629.64,399.74
0.1100,215.27,151.91,68.64,71.28,4.07,78.54,25.74,21.45,45.98,51.48,17.6,91.96,6.6,82.17,53.24,38.5,636.9,387.53
0.1200,218.35,153.45,70.07,71.28,4.07,78.54,25.74,21.45,34.1,42.9,16.06,91.96,6.6,83.6,54.56,38.5,642.95,368.28
0.1300,221.43,154.99,70.07,71.28,4.07,80.08,25.74,20.13,24.97,35.75,14.63,90.42,6.6,86.57,55.88,39.82,647.79,354.64
0.1400,224.51,158.07,71.5,72.71,4.07,80.08,25.74,21.45,19.69,28.6,13.2,87.45,4.95,88,57.2,39.82,658.13,338.91
0.1500,226.05,159.61,71.5,72.71,4.07,81.73,25.74,21.45,15.73,20.02,11.66,82.83,4.95,89.54,57.2,39.82,662.86,321.75
0.1600,229.24,161.15,71.5,74.14,4.07,81.73,25.74,21.45,14.41,15.73,10.23,76.78,4.95,90.97,58.52,39.82,669.02,311.41
0.1700,230.78,162.58,71.5,74.14,4.07,81.73,25.74,21.45,11.77,14.3,8.8,69.19,3.3,92.4,58.52,39.82,671.99,298.1
0.1800,233.97,165.66,72.93,74.14,4.07,81.73,27.17,21.45,10.45,11.44,7.26,61.6,3.3,92.4,59.95,39.82,681.12,286.22
0.1900,237.16,167.2,72.93,75.57,4.07,83.27,27.17,21.45,9.13,11.44,7.26,52.69,0,92.4,59.95,39.82,688.82,272.69
0.2000,240.35,170.28,72.93,75.57,4.07,83.27,27.17,21.45,7.81,10.01,5.83,43.89,0,92.4,59.95,39.82,695.09,259.71
0.2100,243.54,173.36,74.36,77,4.07,84.81,27.17,21.45,7.81,8.58,5.83,33.66,0,89.54,59.95,39.82,705.76,245.19
0.2200,246.73,176.44,74.36,78.32,4.07,84.81,28.6,21.45,6.49,8.58,4.4,23.43,0,86.57,59.95,38.5,714.78,227.92
0.2300,251.57,179.63,75.79,78.32,5.39,86.35,28.6,21.45,6.49,7.15,4.4,16.06,0,79.2,58.52,37.18,727.1,209
0.2400,256.3,182.82,75.79,79.75,5.39,86.35,28.6,21.45,6.49,7.15,2.86,11.66,0,70.4,57.2,35.75,736.45,191.51
0.2500,262.68,185.9,77.22,81.18,5.39,86.35,28.6,21.45,5.17,7.15,2.86,10.23,0,55.77,53.24,35.75,748.77,170.17
0.2600,269.06,190.63,78.65,82.61,5.39,86.35,27.17,21.45,5.17,5.72,2.86,8.69,0,42.46,45.43,33.11,761.31,143.44
0.2700,277.09,196.9,78.65,84.04,5.39,86.35,25.74,21.45,5.17,5.72,2.86,7.26,0,29.15,36.3,31.79,775.61,118.25
0.2800,285.23,201.63,80.08,85.47,4.07,86.35,24.31,21.45,5.17,4.29,2.86,7.26,0,22.55,23.32,27.83,788.59,93.28
0.2900,291.72,207.9,81.51,86.9,4.07,86.35,24.31,21.45,5.17,4.29,2.86,5.83,0,15.84,14.19,22.55,804.21,70.73
0.3000,298.32,211.09,81.51,89.65,4.07,86.35,22.88,21.45,3.85,4.29,2.86,5.83,0,11.88,5.17,13.2,815.32,47.08
0.3100,301.62,215.82,81.51,91.08,4.07,86.35,22.88,21.45,3.85,4.29,2.86,5.83,0,9.24,2.53,9.24,824.78,37.84
0.3200,303.27,218.9,81.51,93.94,4.07,88,24.31,21.45,3.85,4.29,2.86,5.83,0,9.24,2.53,7.92,835.45,36.52
0.3300,303.27,220.55,81.51,95.37,4.07,88,22.88,21.45,3.85,4.29,2.86,4.29,0,9.24,2.53,6.6,837.1,33.66
0.3400,303.27,220.55,81.51,96.8,4.07,89.54,22.88,21.45,3.85,4.29,2.86,5.83,0,7.92,2.53,6.6,840.07,33.88
0.3500,299.97,220.55,81.51,98.23,4.07,89.54,22.88,21.45,3.85,2.86,0,4.29,0,7.92,2.53,6.6,838.2,28.05
0.3600,295.02,220.55,81.51,99.66,4.07,92.73,22.88,21.45,3.85,4.29,2.86,4.29,0,7.92,2.53,5.28,837.87,31.02
0.3700,290.18,218.9,80.08,100.98,4.07,94.27,24.31,22.88,3.85,4.29,0,4.29,0,7.92,0,5.28,835.67,25.63
0.3800,285.23,217.36,80.08,103.84,4.07,94.27,22.88,22.88,3.85,2.86,2.86,4.29,0,6.6,0,5.28,830.61,25.74
0.3900,278.63,215.82,78.65,105.27,4.07,97.46,22.88,22.88,3.85,2.86,0,4.29,0,6.6,0,5.28,825.66,22.88
0.4000,272.25,212.63,78.65,106.7,5.39,99,24.31,22.88,3.85,2.86,2.86,4.29,0,6.6,0,3.96,821.81,24.42
0.4100,264.33,211.09,77.22,109.56,5.39,102.19,24.31,22.88,3.85,2.86,2.86,4.29,0,5.28,0,3.96,816.97,23.1
0.4200,254.76,207.9,75.79,113.85,5.39,106.92,28.6,24.2,3.85,2.86,2.86,4.29,0,5.28,0,3.96,817.41,23.1
0.4300,243.54,203.17,75.79,116.82,5.39,113.3,30.03,24.2,3.85,2.86,0,4.29,0,5.28,0,2.64,812.24,18.92
0.4400,233.97,200.09,74.36,121.22,5.39,118.47,30.03,24.2,3.85,2.86,0,4.29,0,3.96,0,2.64,807.73,17.6
0.4500,224.51,195.36,72.93,124.19,6.71,125.4,32.89,25.52,2.53,2.86,0,2.86,0,3.96,0,2.64,807.51,14.85
0.4600,216.81,189.09,72.93,128.59,6.71,132.22,34.32,25.52,2.53,2.86,0,4.29,0,3.96,0,2.64,806.19,16.28
0.4700,207.57,184.36,72.93,130.02,6.71,137.39,37.18,26.84,2.53,2.86,0,2.86,0,2.64,0,0,803,10.89
0.4800,201.41,181.17,72.93,132.99,8.14,142.56,38.61,26.84,2.53,2.86,0,2.86,0,2.64,0,0,804.65,10.89
0.4900,195.25,178.09,72.93,135.85,8.14,149.49,41.47,28.27,2.53,2.86,0,2.86,0,2.64,0,0,809.49,10.89
0.5000,187.55,173.36,71.5,138.82,8.14,154.66,44.33,28.27,2.53,2.86,0,2.86,0,2.64,0,0,806.63,10.89
0.5100,181.39,168.74,70.07,141.79,8.14,159.83,47.19,28.27,2.53,2.86,0,2.86,0,0,0,0,805.42,8.25
0.5200,172.15,164.12,68.64,144.65,9.46,165,48.62,28.27,2.53,0,0,2.86,0,0,0,0,800.91,5.39
0.5300,164.56,158.07,67.21,147.62,9.46,172.15,51.48,29.59,2.53,0,0,2.86,0,0,0,0,800.14,5.39
0.5400,155.76,153.45,64.35,150.59,9.46,177.65,54.34,29.59,2.53,0,0,2.86,0,0,0,0,795.19,5.39
0.5500,146.85,147.4,62.92,154.99,9.46,183.04,55.77,30.91,2.53,0,0,2.86,0,0,0,0,791.34,5.39
0.5600,138.05,139.81,58.63,157.85,9.46,190.3,60.28,30.91,2.53,0,0,2.86,0,0,0,0,785.29,5.39
0.5700,127.82,132.11,55.88,160.82,9.46,195.8,61.93,30.91,0,0,0,2.86,0,0,0,0,774.73,2.86
0.5800,116.05,124.52,52.03,165.22,10.89,203.06,65.01,32.23,2.53,0,0,2.86,0,0,0,0,769.01,5.39
0.5900,103.29,113.85,48.29,166.76,10.89,208.45,69.85,32.23,0,0,0,2.86,0,0,0,0,753.61,2.86
0.6000,88.22,101.75,41.91,171.6,10.89,215.71,74.58,33.55,2.53,0,0,0,0,0,0,0,738.21,2.53
0.6100,60.61,83.71,34.21,178.09,12.21,217.58,80.85,34.98,2.53,0,0,2.86,0,0,0,0,702.24,5.39
0.6200,43.23,70.07,29.15,183.04,13.53,221.21,87.23,34.98,0,0,0,0,0,0,0,0,682.44,0
0.6300,36.08,59.51,24.09,184.58,13.53,228.47,95.15,36.3,0,0,0,0,0,0,0,0,677.71,0
0.6400,31.24,46.75,19.03,186.23,14.96,232.21,99.88,36.3,0,0,0,2.86,0,0,0,0,666.6,2.86
0.6500,27.61,35.53,16.5,186.23,14.96,237.71,106.15,37.62,0,0,0,2.86,0,0,0,0,662.31,2.86
0.6600,25.19,29.04,13.97,184.58,14.96,243.21,114.29,37.62,2.53,0,0,0,0,0,0,0,662.86,2.53
0.6700,23.98,25.74,12.65,179.74,13.53,250.58,119.24,38.94,2.53,2.86,0,2.86,0,0,0,0,664.4,8.25
0.6800,21.56,22.55,10.12,173.25,13.53,256.08,124.19,41.69,3.85,2.86,0,2.86,0,2.64,0,0,662.97,12.21
0.6900,20.35,19.36,8.8,163.79,12.21,263.34,129.14,43.01,6.49,2.86,0,0,0,2.64,0,0,660,11.99
0.7000,19.14,17.71,7.59,153.45,10.89,268.84,132.44,47.08,7.81,4.29,0,0,0,2.64,0,0,657.14,14.74
0.7100,18.04,16.06,6.27,138.82,8.14,274.34,137.39,51.15,15.73,5.72,2.86,2.86,0,2.64,0,0,650.21,29.81
0.7199,16.83,16.06,6.27,124.19,6.71,279.95,137.39,56.54,45.98,11.44,4.4,2.86,0,2.64,0,2.64,643.94,69.96
0.7299,16.83,14.52,5.06,106.7,5.39,285.34,140.69,59.51,130.9,21.45,5.83,2.86,0,2.64,0,2.64,634.04,166.32
0.7399,15.62,12.87,5.06,89.65,4.07,288.97,143.99,63.91,208.23,28.6,4.4,0,0,3.96,0,2.64,624.14,247.83
0.7499,14.41,12.87,3.74,71.28,4.07,288.97,147.29,66.88,204.71,32.89,4.4,4.29,0,3.96,0,0,609.51,250.25
0.7599,13.2,11.22,3.74,55.77,2.64,288.97,147.29,69.85,215.27,37.18,7.26,4.29,0,3.96,0,0,592.68,267.96
0.7699,13.2,11.22,3.74,41.14,2.64,285.34,150.59,71.39,225.72,40.04,8.8,5.83,0,3.96,0,0,579.26,284.35
0.7799,11.99,9.68,2.53,29.15,2.64,276.21,148.94,72.82,241.23,42.9,11.66,5.83,0,3.96,0,0,553.96,305.58
0.7899,10.78,9.68,2.53,22.55,4.07,263.34,148.94,74.36,254.87,50.05,14.63,5.83,0,3.96,0,0,536.25,329.34
0.7999,9.57,8.03,0,19.91,4.07,243.21,145.64,75.79,268.62,58.63,19.03,5.83,0,3.96,0,0,506.22,356.07
0.8099,8.36,8.03,0,19.91,5.39,213.95,140.69,75.79,284.24,70.95,23.43,5.83,0,3.96,0,0,472.12,388.41
0.8199,5.94,6.38,0,18.59,6.71,174.02,132.44,75.79,298.32,83.27,26.4,5.83,0,2.64,0,0,419.87,416.46
0.8299,4.73,6.38,0,18.59,6.71,133.98,119.24,75.79,307.12,95.59,30.8,7.26,0,2.64,0,0,365.42,443.41
0.8399,2.31,4.84,0,18.59,6.71,99,104.61,75.79,310.64,107.91,35.2,8.69,0,2.64,0,0,311.85,465.08
0.8499,0,4.84,0,17.16,6.71,69.08,87.23,75.79,315.92,123.64,39.6,14.63,0,2.64,0,0,260.81,496.43
0.8599,0,4.84,0,15.84,5.39,51.48,63.47,77.33,319.44,141.02,44,23.43,0,3.96,0,0,218.35,531.85
0.8699,0,4.84,0,13.2,4.07,39.82,44.33,72.82,324.72,156.86,48.4,29.26,0,6.6,0,0,179.08,565.84
0.8799,0,4.84,0,10.56,4.07,33.22,32.89,56.54,328.24,169.62,51.26,33.66,0,7.92,6.49,0,142.12,597.19
0.8899,0,3.19,0,9.24,2.64,24.86,25.74,32.23,331.87,181.83,54.23,38.06,0,9.24,12.98,3.96,97.9,632.17
0.8999,2.31,4.84,0,6.6,0,19.91,20.02,18.81,333.74,192.39,57.09,42.46,3.3,11.88,20.79,6.6,72.49,668.25
0.9099,3.52,4.84,0,5.28,0,14.96,14.3,13.42,335.5,201.19,58.52,45.43,3.3,15.84,27.28,9.24,56.32,696.3
0.9199,3.52,4.84,0,5.28,0,11.55,8.58,6.71,337.37,208.23,59.84,49.83,4.95,18.59,32.45,11.88,40.48,723.14
0.9299,3.52,4.84,0,5.28,0,6.6,2.86,0,337.37,213.51,61.27,52.69,6.6,21.23,37.62,14.52,23.1,744.81
0.9399,3.52,4.84,0,3.96,0,6.6,5.72,0,333.74,215.27,62.59,55.66,8.25,25.19,41.58,15.84,24.64,758.12
0.9499,3.52,4.84,0,3.96,0,8.25,7.15,2.64,326.48,217.03,62.59,60.06,10.01,29.15,45.43,17.16,30.36,767.91
0.9599,3.52,4.84,0,3.96,0,6.6,4.29,2.64,314.16,218.79,62.59,66.11,11.66,34.43,49.39,18.59,25.85,775.72
0.9699,3.52,4.84,0,3.96,0,6.6,2.86,2.64,300.08,217.03,64.02,72.27,11.66,39.82,51.92,19.91,24.42,776.71
0.9799,4.73,4.84,0,3.96,0,4.95,2.86,0,282.48,213.51,62.59,79.86,13.31,46.42,54.56,21.23,21.34,773.96
0.9899,4.73,4.84,0,3.96,0,4.95,2.86,0,266.97,209.99,62.59,87.45,13.31,53.02,58.52,22.55,21.34,774.4
0.9999,4.73,4.84,0,3.96,0,3.3,0,0,249.81,204.71,61.27,95.04,14.96,60.17,61.38,25.19,16.83,772.53
1.0099,4.73,4.84,0,3.96,0,3.3,0,0,234.3,197.67,59.84,104.06,14.96,66,62.81,26.51,16.83,766.15
1.0199,4.73,4.84,0,3.96,0,3.3,0,0,218.79,188.87,58.52,113.41,16.61,73.37,65.67,27.83,16.83,763.07
1.0299,4.73,4.84,0,3.96,0,3.3,0,0,201.19,180.07,57.09,122.98,16.61,82.17,69.85,30.47,16.83,760.43
1.0399,4.73,4.84,0,3.96,0,3.3,0,0,181.83,166.43,54.23,134.09,18.37,90.97,72.71,33.11,16.83,751.74
1.0499,4.73,4.84,0,3.96,0,3.3,0,0,161.04,153.67,51.26,146.85,18.37,99.77,77,35.75,16.83,743.71
1.0599,4.73,4.84,0,3.96,0,0,0,0,141.02,137.83,45.43,158.07,20.02,108.57,81.18,37.18,13.53,729.3
1.0699,4.73,4.84,0,3.96,0,0,0,0,120.89,121.99,41.03,171.16,20.02,119.24,85.47,39.82,13.53,719.62
1.0799,4.73,4.84,0,3.96,0,0,0,0,101.09,104.83,36.63,183.26,20.02,130.46,91.08,43.78,13.53,711.15
1.0899,4.73,4.84,0,2.64,0,0,0,0,79.64,87.89,30.8,193.6,20.02,141.68,96.8,46.42,12.21,696.85
1.0999,4.73,4.84,0,3.96,0,0,0,0,55.22,69.41,23.43,202.18,20.02,152.9,102.41,50.38,13.53,675.95
1.1099,4.73,4.84,0,2.64,0,0,0,0,32.78,52.91,19.03,207.35,20.02,160.93,108.13,57.2,12.21,658.35
1.1199,4.73,4.84,0,2.64,0,0,0,0,23.65,38.61,14.63,210.76,18.37,168.96,113.85,61.49,12.21,650.32
1.1299,3.52,4.84,0,2.64,0,0,0,0,19.69,25.74,13.2,205.59,18.37,177.65,122.98,67.21,11,650.43
1.1399,4.73,4.84,0,2.64,0,0,0,0,15.73,18.59,10.23,195.25,14.96,182.82,133.54,72.93,12.21,644.05
1.1499,4.73,4.84,0,2.64,0,0,0,0,13.09,14.3,7.26,179.85,13.31,188.1,144.1,78.65,12.21,638.66
1.1599,4.73,4.84,0,2.64,0,0,0,0,11.77,12.87,7.26,159.61,11.66,189.75,157.74,85.8,12.21,636.46
1.1699,4.73,4.84,0,0,0,0,0,0,11.77,11.44,5.83,140.47,10.01,191.51,170.17,94.38,9.57,635.58
1.1799,4.73,4.84,0,0,0,0,0,0,10.45,10.01,4.4,121.33,8.25,191.51,184.69,102.96,9.57,633.6
1.1899,3.52,4.84,0,0,0,0,0,0,9.13,8.58,2.86,101.09,6.6,189.75,197.56,112.97,8.36,628.54
1.1999,3.52,4.84,0,0,0,0,0,0,9.13,7.15,2.86,85.91,6.6,188.1,210.43,121.66,8.36,631.84
1.2099,4.73,4.84,0,0,0,0,0,0,7.81,7.15,0,70.73,6.6,186.34,223.41,130.24,9.57,632.28
1.2199,3.52,4.84,0,0,0,0,0,0,7.81,5.72,0,57.09,6.6,182.82,234.74,138.82,8.36,633.6
1.2299,3.52,4.84,0,0,0,0,0,0,6.49,5.72,0,43.89,4.95,179.3,247.72,147.4,8.36,635.47
1.2399,4.73,4.84,0,0,0,0,0,0,6.49,4.29,0,30.69,6.6,174.13,259.05,154.55,9.57,635.8
1.2499,3.52,4.84,0,0,0,0,0,0,5.17,2.86,0,21.89,6.6,167.31,270.38,161.7,8.36,635.91
1.2599,4.73,4.84,0,0,0,0,0,0,5.17,2.86,0,16.06,8.25,159.28,280.17,170.5,9.57,642.29
1.2699,5.94,4.84,0,0,0,0,0,0,3.85,2.86,0,14.63,8.25,149.71,288.75,176.77,10.78,644.82
1.2799,7.15,4.84,0,0,0,0,0,0,3.85,0,0,13.09,10.01,136.84,295.68,181.39,11.99,640.86
1.2899,11.99,4.84,0,0,0,0,0,0,2.53,0,0,11.66,11.66,122.43,297.33,186.12,16.83,631.73
1.2999,20.35,4.84,0,0,0,0,0,0,2.53,0,0,11.66,13.31,110,295.68,189.2,25.19,622.38
1.3099,52.91,6.38,0,0,0,0,0,0,0,0,0,11.66,14.96,99.77,287.1,189.2,59.29,602.69
1.3199,215.27,37.07,12.65,2.64,0,0,0,0,0,0,0,11.66,18.37,90.97,270.38,189.2,267.63,580.58
1.3299,309.76,76.12,34.21,5.28,0,0,0,0,0,0,0,13.09,20.02,85.14,236.28,186.12,425.37,540.65
1.3399,332.75,116.93,52.03,7.92,0,0,0,0,0,0,0,13.09,20.02,82.17,178.2,178.31,509.63,471.79
1.3499,318.01,153.45,71.5,23.87,0,0,0,0,0,0,0,10.23,20.02,77.77,113.85,168.96,566.83,390.83
1.3599,301.62,179.63,87.23,49.06,0,9.9,0,0,0,0,0,7.26,18.37,67.43,78.43,155.98,627.44,327.47
1.3699,299.97,198.44,100.1,58.52,0,36.52,11.44,0,0,0,0,2.86,13.31,55.77,61.38,138.82,704.99,272.14
1.3799,299.97,209.44,111.54,64.24,0,61.16,30.03,9.35,0,0,0,0,10.01,43.78,49.39,110.11,785.73,213.29
1.3899,304.92,222.2,124.85,71.28,0,78.54,28.6,10.67,0,0,0,0,4.95,29.15,36.3,74.36,841.06,144.76
1.3999,311.41,232.54,133.76,74.14,0,91.08,21.45,13.42,0,0,0,0,0,18.59,22,50.38,877.8,90.97
1.4099,313.06,235.95,139.7,77,0,97.46,28.6,14.74,0,0,0,0,0,11.88,11.66,35.75,906.51,59.29
1.4199,311.41,235.95,141.24,81.18,2.64,103.73,30.03,16.06,0,0,0,0,0,7.92,15.51,29.15,922.24,52.58
1.4299,304.92,235.95,138.27,85.47,2.64,108.46,30.03,16.06,0,0,0,0,0,6.6,3.85,17.16,921.8,27.61
1.4399,295.02,234.3,132.33,91.08,2.64,111.65,28.6,17.49,2.53,0,0,0,0,0,0,3.96,913.11,6.49
1.4499,278.63,229.13,123.42,98.23,2.64,115.06,25.74,17.49,0,0,0,0,0,0,0,0,890.34,0
1.4599,257.95,222.2,112.97,106.7,2.64,118.47,24.31,17.49,0,0,0,0,0,0,0,0,862.73,0
1.4699,235.62,212.63,101.53,116.82,2.64,123.64,24.31,18.81,0,0,0,0,0,0,0,2.64,836,2.64
1.4799,212.19,200.09,90.09,125.62,2.64,127.05,24.31,18.81,0,0,0,0,0,0,0,2.64,800.8,2.64
1.4899,190.63,187.44,80.08,135.85,2.64,130.57,22.88,20.13,0,0,0,0,0,0,0,0,770.22,0
1.4999,167.53,170.28,70.07,144.65,4.07,133.98,21.45,20.13,0,0,0,0,0,0,0,0,732.16,0
1.5099,146.85,153.45,61.49,153.45,4.07,139.15,22.88,21.45,0,0,0,0,0,0,0,0,702.79,0
1.5199,127.82,138.27,54.56,160.82,4.07,144.32,21.45,21.45,0,0,0,0,0,0,0,0,672.76,0
1.5299,108.79,122.98,46.97,168.3,4.07,149.49,22.88,22.88,0,0,0,0,0,0,0,0,646.36,0
1.5399,90.97,107.8,40.59,176.44,4.07,156.42,25.74,22.88,0,0,0,0,0,0,0,0,624.91,0
1.5499,68.86,92.73,33,186.23,5.39,165,25.74,24.2,0,0,0,0,0,0,0,0,601.15,0
1.5599,49.28,77.66,26.62,194.37,5.39,175.78,27.17,25.52,0,0,0,0,0,0,0,0,581.79,0
1.5699,38.39,65.56,21.56,200.97,5.39,186.67,30.03,25.52,0,0,0,0,0,0,0,0,574.09,0
1.5799,33.66,53.24,19.03,205.81,5.39,199.43,31.46,26.84,0,0,0,0,0,0,0,0,574.86,0
1.5899,30.03,41.91,16.5,209.11,5.39,212.08,35.75,28.27,0,0,0,0,0,0,0,0,579.04,0
1.5999,26.4,33.88,15.18,210.76,5.39,224.84,38.61,28.27,0,0,0,0,0,0,0,0,583.33,0
1.6099,25.19,27.39,13.97,210.76,5.39,239.47,44.33,29.59,0,0,0,0,0,0,0,0,596.09,0
1.6199,23.98,25.74,12.65,207.46,5.39,252.34,51.48,30.91,0,0,0,0,0,0,0,0,609.95,0
1.6299,22.77,22.55,11.44,202.51,5.39,263.34,55.77,33.55,0,0,0,0,0,0,0,0,617.32,0
1.6399,21.56,20.9,10.12,197.67,5.39,270.71,66.66,38.94,0,0,0,0,0,0,0,0,631.95,0
1.6499,20.35,19.36,10.12,191.18,5.39,278.08,76.12,43.01,0,0,0,0,0,0,0,0,643.61,0
1.6599,19.14,16.06,8.8,184.58,4.07,285.34,82.5,45.76,0,0,0,0,0,0,0,0,646.25,0
1.6699,18.04,14.52,7.59,176.44,4.07,290.84,90.42,49.72,0,0,0,0,0,0,0,0,651.64,0
1.6799,16.83,14.52,6.27,169.95,4.07,296.23,95.15,52.47,0,0,0,0,0,0,0,0,655.49,0
1.6899,15.62,12.87,6.27,160.82,4.07,299.86,101.42,56.54,0,0,0,0,0,0,0,0,657.47,0
1.6999,15.62,11.22,5.06,150.59,2.64,307.12,107.8,59.51,0,0,0,0,0,0,0,0,659.56,0
1.7099,14.41,11.22,5.06,138.82,2.64,312.62,112.64,63.91,0,0,0,0,0,0,0,0,661.32,0
1.7199,14.41,11.22,5.06,125.62,2.64,316.25,112.64,69.85,0,0,0,0,0,0,0,0,657.69,0
1.7299,14.41,9.68,3.74,109.56,0,321.64,117.59,72.82,0,0,0,0,0,0,0,0,649.44,0
1.7399,13.2,9.68,3.74,95.37,0,325.27,120.89,77.33,0,0,0,0,0,0,0,0,645.48,0
1.7499,13.2,9.68,3.74,81.18,0,327.14,124.19,81.73,2.53,0,0,0,0,0,0,0,640.86,2.53
1.7599,11.99,8.03,2.53,66.99,0,328.9,125.84,86.24,5.17,2.86,0,0,0,2.64,0,0,630.52,10.67
1.7699,11.99,8.03,2.53,53.02,0,328.9,127.49,90.75,9.13,4.29,0,0,0,2.64,0,0,622.71,16.06
1.7799,10.78,6.38,2.53,39.82,0,325.27,129.14,95.15,18.37,8.58,0,0,0,2.64,0,0,609.07,29.59
1.7899,9.57,6.38,2.53,29.15,2.64,319.88,129.14,99.66,120.89,20.02,5.83,2.86,0,3.96,0,0,598.95,153.56
1.7999,8.36,4.84,0,23.87,2.64,305.36,130.79,104.06,386.54,55.77,7.26,2.86,0,10.56,2.53,3.96,579.92,469.48
1.8099,5.94,4.84,0,22.55,4.07,274.34,129.14,107.03,404.91,92.51,8.8,0,0,3.96,0,0,547.91,510.18
1.8199,3.52,3.19,0,21.23,5.39,215.71,122.54,110,404.91,131.56,19.03,2.86,0,3.96,0,0,481.58,562.32
1.8299,0,3.19,0,21.23,6.71,151.25,110.99,110,388.41,158.51,26.4,5.83,0,3.96,0,0,403.37,583.11
1.8399,0,0,0,21.23,6.71,97.46,95.15,108.57,361.02,181.83,33.66,11.66,0,3.96,0,0,329.12,592.13
1.8499,0,0,0,18.59,6.71,65.89,71.39,108.57,342.87,215.27,45.43,29.26,0,5.28,0,0,271.15,638.11
1.8599,0,0,0,14.52,4.07,48.18,47.19,96.69,337.37,239.47,55.77,45.43,0,9.24,0,0,210.65,687.28
1.8699,0,0,0,11.88,2.64,36.52,34.32,51.15,335.5,251.57,62.59,52.69,0,15.84,6.49,0,136.51,724.68
1.8799,0,0,0,9.24,0,26.51,27.17,25.52,337.37,260.15,68.2,55.66,0,21.23,19.47,5.28,88.44,767.36
1.8899,0,0,0,6.6,0,18.26,20.02,17.49,341,261.8,70.95,57.09,0,25.19,28.49,7.92,62.37,792.44
1.8999,0,0,0,6.6,0,13.2,12.87,8.03,341,260.15,73.7,57.09,3.3,29.15,35.09,10.56,40.7,810.04
1.9099,0,0,0,6.6,0,8.25,4.29,0,337.37,256.74,73.7,58.63,4.95,31.79,38.94,11.88,19.14,814
1.9199,0,0,0,5.28,0,6.6,4.29,0,330.11,253.22,73.7,58.63,6.6,33.11,42.79,13.2,16.17,811.36
1.9299,0,0,0,5.28,0,8.25,10.01,2.64,315.92,246.4,72.27,61.6,6.6,37.18,45.43,14.52,26.18,799.92
1.9399,0,0,0,3.96,0,6.6,4.29,2.64,298.32,241.23,70.95,66.11,8.25,42.46,46.75,15.84,17.49,789.91
1.9499,0,0,0,3.96,0,4.95,2.86,0,275.55,234.3,68.2,72.27,8.25,49.06,48.07,17.16,11.77,772.86
1.9599,0,0,0,3.96,0,4.95,2.86,0,253.22,225.72,65.34,81.29,8.25,55.77,49.39,18.59,11.77,757.57
1.9699,2.31,0,0,3.96,0,3.3,0,0,230.89,215.27,61.27,90.42,8.25,63.03,50.6,19.91,9.57,739.64
1.9799,2.31,0,0,3.96,0,3.3,0,0,209.99,202.95,58.52,99.55,8.25,70.4,51.92,21.23,9.57,722.81
1.9899,2.31,0,0,3.96,0,3.3,0,0,187.11,187.11,55.77,107.14,10.01,77.77,51.92,22.55,9.57,699.38
1.9999,2.31,3.19,0,2.64,0,3.3,0,0,166.1,171.27,52.8,116.6,10.01,85.14,54.56,23.87,11.44,680.35
2.0099,2.31,3.19,0,2.64,0,0,0,0,149.38,155.32,48.4,124.52,10.01,92.4,57.2,25.19,8.14,662.42
2.0199,2.31,0,0,2.64,0,0,0,0,130.9,139.48,45.43,130.9,11.66,99.77,61.38,26.51,4.95,646.03
2.0299,2.31,0,0,2.64,0,0,0,0,114.29,123.64,42.46,138.93,11.66,108.57,67.1,30.47,4.95,637.12
2.0399,2.31,0,0,2.64,0,0,0,0,96.14,107.91,38.06,146.85,11.66,117.7,72.71,33.11,4.95,624.14
2.0499,2.31,0,0,2.64,0,0,0,0,77.99,90.97,32.23,153.23,11.66,127.27,78.43,35.75,4.95,607.53
2.0599,2.31,3.19,0,2.64,0,0,0,0,58.19,75.57,26.4,158.07,13.31,138.49,85.47,39.82,8.14,595.32
2.0699,2.31,0,0,2.64,0,0,0,0,36.74,58.63,20.46,161.26,11.66,148.06,92.51,45.1,4.95,574.42
