Time(sec),VGRF_left_s1,VGRF_left_s2,VGRF_left_s3,VGRF_left_s4,VGRF_left_s5,VGRF_left_s6,VGRF_left_s7,VGRF_left_s8,VGRF_right_s1,VGRF_right_s2,VGRF_right_s3,VGRF_right_s4,VGRF_right_s5,VGRF_right_s6,VGRF_right_s7,VGRF_right_s8,Total_force_left,Total_force_right
0.0100,300.41,223.96,117.04,57.97,26.4,80.52,101.09,35.86,8.58,4.95,4.29,3.08,0,2.31,0,0,943.25,23.21
0.0200,293.37,218.79,117.04,56.76,27.83,80.52,105.6,34.43,8.58,4.95,4.29,3.08,0,2.31,0,0,934.34,23.21
0.0300,289.85,213.51,115.39,56.76,30.58,83.38,108.57,37.18,7.37,3.3,5.72,0,0,0,0,0,935.22,16.39
0.0400,284.57,213.51,117.04,57.97,30.58,83.38,114.62,35.86,7.37,0,5.72,0,0,2.31,0,0,937.53,15.4
0.0500,279.29,209.99,115.39,59.4,32.01,84.7,116.27,37.18,7.37,4.95,5.72,0,0,0,0,0,934.23,18.04
0.0600,273.9,208.23,117.04,59.4,32.01,86.13,122.65,35.86,6.16,0,4.29,0,0,0,0,0,935.22,10.45
0.0700,270.27,202.95,115.39,60.83,36.19,90.42,127.49,37.18,6.16,0,5.72,0,0,0,0,0,940.72,11.88
0.0800,266.64,202.95,117.04,63.69,37.62,90.42,129.14,38.61,6.16,3.3,2.86,0,0,0,0,0,946.11,12.32
0.0900,261.36,199.43,117.04,65.12,37.62,94.6,133.98,39.93,6.16,3.3,4.29,0,0,0,0,0,949.08,13.75
0.1000,254.1,195.91,117.04,67.98,37.62,97.46,137.17,38.61,6.16,0,2.86,0,0,0,0,0,945.89,9.02
0.1100,246.95,194.15,113.85,70.84,38.94,101.75,142.01,39.93,4.84,0,4.29,0,0,0,0,0,948.42,9.13
0.1200,239.8,190.63,113.85,72.27,41.8,101.75,146.85,41.36,6.16,0,2.86,0,0,0,0,0,948.31,9.02
0.1300,232.65,187.11,112.2,73.7,41.8,107.36,153.23,39.93,6.16,3.3,2.86,0,0,0,0,0,947.98,12.32
0.1400,225.5,181.83,112.2,79.42,44.55,110.22,158.07,41.36,6.16,0,2.86,0,0,0,0,0,953.15,9.02
0.1500,218.24,178.31,110.66,83.71,44.55,114.62,161.26,42.68,4.84,0,4.29,0,0,0,0,0,954.03,9.13
0.1600,209.22,173.03,110.66,86.57,48.73,119.24,167.75,44.11,4.84,3.3,0,0,0,0,0,0,959.31,8.14
0.1700,198.44,169.51,106.04,90.86,48.73,126.94,170.94,44.11,4.84,0,4.29,0,0,0,0,0,955.57,9.13
0.1800,185.79,161.04,102.85,95.15,52.91,131.45,177.76,45.54,4.84,0,0,0,0,0,0,0,952.49,4.84
0.1900,175.01,155.98,98.23,99.44,52.91,136.07,183.04,48.29,3.63,0,2.86,0,0,0,0,0,948.97,6.49
0.2000,162.58,145.97,95.15,103.73,55.77,140.69,193.6,46.86,4.84,0,2.86,0,0,0,0,0,944.35,7.7
0.2100,150.37,137.5,90.42,105.16,57.2,146.85,200.53,51.04,4.84,3.3,2.86,0,0,0,0,0,939.07,11
0.2200,136.4,130.79,85.8,109.45,58.63,149.82,207.57,52.36,3.63,0,0,0,0,0,0,0,930.82,3.63
0.2300,120.67,119.13,77.99,113.96,63.03,155.98,216.37,53.79,3.63,0,4.29,0,0,0,0,0,920.92,7.92
0.2400,106.7,109.12,71.83,118.58,66,162.14,225.06,53.79,3.63,0,0,0,0,0,0,0,913.22,3.63
0.2500,91.19,97.68,64.02,121.66,67.54,166.76,233.53,55.11,4.84,0,2.86,0,0,0,0,0,897.49,7.7
0.2600,75.68,86.13,53.79,126.28,70.4,175.01,242.11,57.97,3.63,0,0,0,0,0,0,0,887.37,3.63
0.2700,60.17,74.69,44.11,129.36,71.94,179.96,248.93,62.37,4.84,0,2.86,0,0,0,0,0,871.53,7.7
0.2800,46.42,63.25,35.86,130.9,73.37,188.32,259.05,63.91,3.63,0,4.29,0,0,0,0,0,861.08,7.92
0.2900,34.43,48.62,24.86,134.09,73.37,193.27,265.87,68.31,3.63,0,2.86,0,0,0,0,0,842.82,6.49
0.3000,29.26,30.69,19.25,134.09,74.8,201.52,269.28,72.82,3.63,0,0,0,0,0,0,0,831.71,3.63
0.3100,24.09,21.01,13.75,130.9,70.4,208.23,274.45,75.79,4.84,0,2.86,0,0,0,0,0,818.62,7.7
0.3200,22.33,17.82,12.43,123.2,67.54,213.18,277.86,81.73,8.58,0,2.86,0,0,0,0,0,816.09,11.44
0.3300,18.92,14.52,9.57,113.96,63.03,214.83,279.51,84.7,34.43,0,2.86,0,0,0,0,0,799.04,37.29
0.3400,18.92,14.52,9.57,99.44,57.2,218.13,281.16,87.78,111.54,3.3,2.86,0,0,2.31,0,0,786.72,120.01
0.3500,17.16,12.87,8.25,83.71,51.48,218.13,279.51,95.15,172.92,3.3,4.29,4.73,0,2.31,0,2.86,766.26,190.41
0.3600,15.4,12.87,5.5,67.98,44.55,214.83,279.51,96.69,204.71,13.2,8.58,4.73,0,4.73,0,0,737.33,235.95
0.3700,15.4,12.87,5.5,55.55,36.19,208.23,277.86,101.2,233.42,33,20.02,6.27,0,5.83,0,4.4,712.8,302.94
0.3800,15.4,14.52,6.82,43.67,29.26,198.22,272.69,104.17,241.34,46.2,32.89,7.92,0,5.83,0,2.86,684.75,337.04
0.3900,15.4,12.87,6.82,33.11,19.47,188.32,265.87,107.14,257.18,59.4,42.9,9.46,0,5.83,0,2.86,649,377.63
0.4000,13.75,12.87,6.82,21.23,15.29,173.36,257.4,113.19,263.56,70.18,50.05,6.27,0,4.73,0,0,613.91,394.79
0.4100,13.75,11.33,5.5,11.77,11.11,155.98,248.93,117.81,258.72,77.88,57.2,3.08,0,4.73,0,0,576.18,401.61
0.4200,13.75,11.33,4.07,8.25,11.11,130.02,231.88,120.89,249.26,90.2,67.98,7.92,0,3.52,0,0,531.3,418.88
0.4300,11.99,9.68,5.5,7.04,11.11,101.75,214.61,123.97,249.26,111.76,78.87,14.3,0,4.73,0,0,485.65,458.92
0.4400,11.99,9.68,4.07,7.04,12.54,79.09,188.32,127.05,253.99,131.56,92.84,23.87,3.3,4.73,2.75,4.4,439.78,517.44
0.4500,10.23,9.68,4.07,5.83,13.86,57.86,156.42,127.05,263.56,149.6,103.73,31.79,6.6,16.61,13.75,10.23,385,595.87
0.4600,8.58,6.38,0,5.83,15.29,47.19,129.14,123.97,274.67,164.45,117.59,36.63,6.6,24.86,24.75,13.2,336.38,662.75
0.4700,6.82,6.38,0,7.04,16.72,36.74,96.58,116.27,286.33,177.87,123.75,39.82,9.9,32.01,38.61,19.03,286.55,727.32
0.4800,5.06,4.84,0,7.04,16.72,32.78,71.28,107.14,294.8,187.99,131.45,43.01,11.55,39.05,51.04,22,244.86,780.89
0.4900,0,6.38,0,5.83,16.72,30.14,59.4,92.18,301.62,196.35,139.04,43.01,13.2,42.68,57.97,24.86,210.65,818.73
0.5000,0,3.19,0,4.73,15.29,24.86,49.17,72.82,308.33,203.17,142.12,46.2,14.85,47.41,59.4,24.86,170.06,846.34
0.5100,0,3.19,0,2.31,9.68,19.58,40.48,55.11,311.74,206.47,146.74,49.39,13.2,49.83,65.34,27.83,130.35,870.54
0.5200,0,0,0,2.31,6.93,14.41,30.36,42.68,315.15,211.53,148.28,52.58,16.5,53.35,69.85,27.83,96.69,895.07
0.5300,0,0,0,0,4.18,7.81,20.24,27.5,318.56,220,148.28,54.12,16.5,55.77,71.39,30.8,59.73,915.42
0.5400,0,0,0,0,0,3.85,14.41,16.5,318.56,221.65,149.82,57.2,16.5,58.74,72.82,33.66,34.76,928.95
0.5500,3.41,0,0,0,0,3.85,8.69,5.5,316.91,225.17,149.82,60.17,18.15,64.79,75.79,33.66,21.45,944.46
0.5600,3.41,0,0,0,0,0,5.72,4.07,313.5,225.17,146.74,61.71,18.15,69.3,77.33,32.23,13.2,944.13
0.5700,3.41,0,0,0,0,0,5.72,2.75,308.33,228.69,146.74,66.11,18.15,73.81,78.76,33.66,11.88,954.25
0.5800,3.41,0,0,0,0,0,4.29,0,301.62,228.69,143.66,69.08,19.8,76.78,77.33,36.63,7.7,953.59
0.5900,3.41,0,0,0,0,0,4.29,2.75,291.39,226.93,142.12,73.59,18.15,81.4,81.84,38.06,10.45,953.48
0.6000,3.41,0,0,0,0,0,0,2.75,281.16,226.93,134.42,76.56,19.8,87.34,81.84,38.06,6.16,946.11
0.6100,3.41,0,0,0,0,0,2.86,2.75,268.29,221.65,132.88,82.5,18.15,90.42,83.27,38.06,9.02,935.22
0.6200,3.41,0,0,0,0,0,2.86,0,255.64,216.59,129.91,85.58,19.8,96.47,80.3,39.6,6.27,923.89
0.6300,3.41,0,0,0,0,0,2.86,0,246.07,214.94,126.83,87.01,18.15,97.9,80.3,39.6,6.27,910.8
0.6400,3.41,0,0,0,0,0,2.86,0,236.5,209.88,120.67,91.52,21.45,100.98,81.84,41.03,6.27,903.87
0.6500,3.41,0,0,0,0,0,0,0,227.04,204.82,120.67,92.95,19.8,107.03,81.84,39.6,3.41,893.75
0.6600,3.41,0,0,0,0,0,2.86,0,220.66,201.41,114.51,94.49,19.8,110,78.76,41.03,6.27,880.66
0.6700,3.41,0,0,0,0,0,0,0,214.28,198.11,116.05,99,18.15,113.08,81.84,39.6,3.41,880.11
0.6800,3.41,0,0,0,0,0,2.86,0,209.55,198.11,114.51,100.43,19.8,114.73,81.84,41.03,6.27,880
0.6900,3.41,0,0,0,0,0,2.86,0,204.71,193.05,111.43,101.97,21.45,116.49,81.84,41.03,6.27,871.97
0.7000,3.41,0,0,0,0,0,0,0,203.17,194.7,113.08,101.97,21.45,116.49,80.3,41.03,3.41,872.19
0.7100,0,0,0,0,0,0,2.86,0,201.52,194.7,111.43,104.94,21.45,120.01,80.3,39.6,2.86,873.95
0.7199,0,0,0,0,0,0,0,0,203.17,194.7,109.89,104.94,18.15,120.01,77.33,41.03,0,869.22
0.7299,0,0,0,0,0,0,2.86,0,206.36,196.35,109.89,106.37,19.8,123.42,74.36,41.03,2.86,877.58
0.7399,0,0,0,0,0,0,0,0,207.9,196.35,113.08,106.37,21.45,121.77,75.79,39.6,0,882.31
0.7499,0,0,0,0,0,0,2.86,0,212.74,201.41,113.08,104.94,18.15,121.77,71.39,38.06,2.86,881.54
0.7599,3.41,0,0,0,0,0,0,0,215.93,203.17,113.08,107.91,19.8,120.01,68.31,38.06,3.41,886.27
0.7699,0,0,0,0,0,0,0,0,219.12,204.82,111.43,110.88,19.8,123.42,63.91,35.2,0,888.58
0.7799,0,0,0,0,0,0,2.86,0,217.47,203.17,113.08,113.96,19.8,125.18,62.37,35.2,2.86,890.23
0.7899,0,0,0,0,0,0,0,0,215.93,203.17,108.35,115.5,19.8,126.94,63.91,35.2,0,888.8
0.7999,0,0,0,0,0,0,0,0,211.09,203.17,109.89,118.69,16.5,132.22,65.34,38.06,0,894.96
0.8099,0,0,0,0,0,0,0,0,203.17,198.11,109.89,124.96,18.15,135.63,66.88,39.6,0,896.39
0.8199,0,0,0,0,0,0,0,0,195.25,194.7,108.35,129.69,19.8,142.67,69.85,39.6,0,899.91
0.8299,0,0,0,0,0,0,0,0,185.68,187.99,102.19,132.88,23.1,147.84,74.36,41.03,0,895.07
0.8399,0,0,0,0,0,0,2.86,0,172.92,184.58,103.73,134.42,23.1,153.12,77.33,41.03,2.86,890.23
0.8499,0,0,0,0,0,0,0,0,161.04,172.81,100.65,140.8,21.45,161.81,81.84,41.03,0,881.43
0.8599,0,0,0,0,0,0,2.86,0,149.71,167.75,95.92,143.99,23.1,170.5,90.75,44,2.86,885.72
0.8699,0,0,0,0,0,0,0,0,135.63,156.2,88.22,147.07,26.4,180.95,98.23,42.46,0,875.16
0.8799,0,0,0,0,0,0,0,0,118.69,143,85.03,153.45,24.75,189.64,102.74,45.43,0,862.73
0.8899,0,0,0,0,0,0,0,0,104.83,131.56,78.87,156.53,24.75,198.22,114.73,51.26,0,860.75
0.8999,0,0,0,0,0,0,0,0,91.41,116.71,72.71,166.1,28.05,208.67,122.43,54.23,0,860.31
0.9099,0,0,0,0,0,0,0,0,76.67,105.6,64.9,169.51,31.46,215.6,130.02,57.2,0,850.96
0.9199,0,0,0,0,0,0,0,0,63.25,93.28,55.77,178.09,29.81,228.03,140.8,60.28,0,849.31
0.9299,0,0,0,0,0,0,0,0,50.49,80.96,48.62,183.37,31.46,239.03,149.93,64.9,0,848.76
0.9399,0,0,0,0,0,0,0,0,40.7,71.72,40.04,190.19,31.46,248.16,157.63,69.52,0,849.42
0.9499,0,0,0,0,0,0,0,0,33.22,56.1,30.03,195.47,31.46,259.16,168.52,77.11,0,851.07
0.9599,0,0,0,0,0,0,0,0,28.27,42.9,25.74,198.88,31.46,271.92,176.66,83.27,0,859.1
0.9699,0,0,0,0,0,0,0,0,23.43,33,20.02,198.88,31.46,275.66,184.69,89.43,0,856.57
0.9799,0,0,0,0,0,0,0,0,20.9,26.4,17.16,193.71,29.81,286.88,194.48,95.48,0,864.82
0.9899,0,0,0,0,0,0,0,0,18.48,21.45,14.3,191.95,28.05,290.73,199.32,101.64,0,865.92
0.9999,0,0,0,0,0,0,0,0,15.95,16.5,12.87,183.37,26.4,294.47,204.16,107.8,0,861.52
1.0099,6.82,0,0,0,0,0,0,0,12.32,14.85,10.01,171.27,19.8,298.21,205.81,112.42,6.82,844.69
1.0199,24.09,4.84,0,0,0,0,0,0,11,11.55,8.58,156.53,18.15,303.82,209,118.8,28.93,837.43
1.0299,127.6,9.68,2.75,0,0,0,0,0,11,11.55,8.58,139.15,16.5,305.8,204.16,125.18,140.03,821.92
1.0399,189.42,21.01,2.75,3.52,0,0,0,0,9.79,11.55,7.15,120.23,8.25,309.54,204.16,131.56,216.7,802.23
1.0499,248.71,55.11,5.5,2.31,0,0,0,0,8.58,11.55,7.15,100.43,8.25,311.41,194.48,137.94,311.63,779.79
1.0599,298.65,100.87,19.25,2.31,0,0,0,0,8.58,9.9,5.72,82.5,4.95,307.67,184.69,142.78,421.08,746.79
1.0699,309.32,135.85,34.43,0,0,0,0,0,7.37,8.25,5.72,64.68,4.95,300.08,170.17,152.35,479.6,713.57
1.0799,305.69,162.69,46.86,3.52,0,0,0,0,6.16,8.25,5.72,46.2,3.3,283.14,159.17,157.08,518.76,669.02
1.0899,293.37,181.83,56.54,11.77,0,0,0,0,6.16,6.6,4.29,30.25,4.95,251.79,142.34,165.11,543.51,611.49
1.0999,277.42,195.91,59.4,20.02,0,0,0,0,3.63,6.6,2.86,25.41,6.6,206.91,122.43,173.91,552.75,548.35
1.1099,270.27,209.99,67.1,27.17,0,2.53,0,0,2.42,3.3,2.86,25.41,6.6,156.53,105.71,175.67,577.06,478.5
1.1199,270.27,220.55,73.37,36.63,0,3.85,0,0,0,3.3,0,22.22,11.55,110,86.24,181.06,604.67,414.37
1.1299,275.66,232.54,82.72,43.67,0,11.77,0,2.75,0,0,0,22.22,11.55,75.35,72.82,177.43,649.11,359.37
1.1399,284.57,241.23,91.96,47.3,0,23.54,0,8.25,0,0,0,20.68,13.2,53.35,57.97,158.73,696.85,303.93
1.1499,293.37,248.16,99.77,47.3,2.75,30.14,8.69,12.32,0,0,0,17.49,9.9,39.05,48.29,131.56,742.5,246.29
1.1599,302.17,256.74,106.04,48.4,4.18,37.95,18.81,15.18,0,0,0,14.3,8.25,33.22,39.93,107.8,789.47,203.5
1.1699,307.56,263.67,109.12,50.82,6.93,41.91,23.1,15.18,0,0,0,9.46,6.6,24.86,31.68,86.35,818.29,158.95
1.1799,312.84,267.19,112.2,53.13,6.93,44.55,28.93,16.5,0,0,0,7.92,0,17.71,24.75,63.36,842.27,113.74
1.1899,314.6,272.36,112.2,54.34,6.93,48.51,30.36,16.5,0,0,0,3.08,0,12.98,17.93,39.6,855.8,73.59
1.1999,316.36,275.77,112.2,55.55,8.36,51.15,33.22,17.93,0,0,0,4.73,0,8.25,12.32,26.4,870.54,51.7
1.2099,316.36,275.77,113.85,57.97,8.36,53.79,33.22,19.25,0,0,0,0,0,5.83,5.5,14.63,878.57,25.96
1.2199,316.36,279.29,112.2,57.97,9.68,56.43,36.19,20.68,2.42,0,0,0,0,3.52,0,2.86,888.8,8.8
1.2299,316.36,281.05,112.2,57.97,8.36,57.86,34.76,20.68,2.42,0,0,0,0,3.52,0,0,889.24,5.94
1.2399,316.36,281.05,112.2,60.83,8.36,59.29,37.62,22,3.63,0,0,0,0,0,0,0,897.71,3.63
1.2499,314.6,281.05,112.2,60.83,11.11,60.72,40.48,22,2.42,0,0,0,0,0,0,0,902.99,2.42
1.2599,312.84,277.53,112.2,60.83,11.11,63.58,41.91,23.43,3.63,0,0,0,0,0,0,0,903.43,3.63
1.2699,309.32,274.01,109.12,63.69,11.11,64.9,44.88,23.43,2.42,0,0,0,0,0,0,0,900.46,2.42
1.2799,303.93,272.36,110.66,62.26,12.54,63.58,47.74,23.43,2.42,0,0,0,0,0,0,0,896.5,2.42
1.2899,298.65,268.84,109.12,63.69,12.54,67.76,50.6,24.75,2.42,0,2.86,0,0,0,0,0,895.95,5.28
1.2999,293.37,263.67,107.58,63.69,15.29,69.19,55,26.18,2.42,0,2.86,0,0,0,0,0,893.97,5.28
1.3099,289.85,258.5,107.58,63.69,13.86,70.62,57.86,26.18,2.42,0,0,0,0,0,0,0,888.14,2.42
1.3199,282.81,255.09,106.04,65.12,18.04,74.8,62.37,27.5,3.63,0,0,0,0,0,0,0,891.77,3.63
1.3299,279.29,249.81,106.04,66.55,18.04,76.23,65.34,26.18,2.42,0,0,0,0,0,0,0,887.48,2.42
1.3399,273.9,242.99,106.04,69.41,18.04,80.52,71.28,27.5,2.42,0,0,0,0,0,0,0,889.68,2.42
1.3499,268.51,239.47,107.58,69.41,20.9,83.38,74.25,30.36,2.42,0,2.86,0,0,0,0,0,893.86,5.28
1.3599,263.12,236.06,104.5,70.84,20.9,87.56,77.22,31.68,2.42,0,0,0,0,0,0,0,891.88,2.42
1.3699,257.73,232.54,106.04,73.7,22.22,88.99,81.73,31.68,2.42,0,0,0,0,0,0,0,894.63,2.42
1.3799,250.58,225.72,104.5,76.56,23.65,93.17,86.13,31.68,2.42,0,0,0,0,0,0,0,891.99,2.42
1.3899,243.43,222.2,104.5,79.42,23.65,98.89,89.21,31.68,2.42,0,0,0,0,0,0,0,892.98,2.42
1.3999,238.04,217.03,104.5,82.28,26.4,103.07,95.15,33.11,2.42,0,0,0,0,0,0,0,899.58,2.42
1.4099,230.78,209.99,106.04,85.14,27.83,107.36,101.09,34.43,2.42,0,0,0,0,0,0,0,902.66,2.42
1.4199,223.63,206.47,102.85,89.43,29.26,111.65,105.6,35.86,2.42,0,0,0,0,0,0,0,904.75,2.42
1.4299,216.48,199.43,102.85,92.29,30.58,116.16,113.08,37.18,2.42,0,0,0,0,0,0,0,908.05,2.42
1.4399,207.46,194.15,102.85,96.58,34.76,122.32,121.11,37.18,2.42,0,0,0,0,0,0,0,916.41,2.42
1.4499,198.44,185.35,99.77,100.87,36.19,128.48,127.49,39.93,2.42,0,0,0,0,0,0,0,916.52,2.42
1.4599,187.55,178.31,98.23,105.16,38.94,134.53,137.17,38.61,2.42,0,0,0,0,0,0,0,918.5,2.42
1.4699,176.77,169.51,96.69,108.02,41.8,139.15,145.2,39.93,0,0,0,0,0,0,0,0,917.07,0
1.4799,164.34,159.39,93.61,110.88,44.55,143.77,156.42,41.36,2.42,0,0,0,0,0,0,0,914.32,2.42
1.4899,152.13,149.27,87.34,115.5,48.73,149.82,166.1,42.68,2.42,0,0,0,0,0,0,0,911.57,2.42
1.4999,136.4,137.5,82.72,120.12,51.48,155.98,176,45.54,0,0,0,0,0,0,0,0,905.74,0
1.5099,118.91,125.84,76.45,126.28,52.91,163.68,186.56,46.86,2.42,0,0,0,0,0,0,0,897.49,2.42
1.5199,103.29,112.42,68.64,129.36,57.2,170.06,197.12,49.61,0,0,0,0,0,0,0,0,887.7,0
1.5299,84.37,99.22,59.4,134.09,58.63,175.01,207.57,49.61,0,0,0,0,0,0,0,0,867.9,0
1.5399,67.1,86.13,53.79,138.71,60.17,183.26,216.37,52.36,0,0,0,0,0,0,0,0,857.89,0
1.5499,53.35,74.69,44.11,143.33,60.17,189.97,221.65,53.79,0,0,0,0,0,0,0,0,841.06,0
1.5599,39.6,63.25,35.86,146.41,61.6,196.57,231.88,55.11,0,0,0,0,0,0,0,0,830.28,0
1.5699,32.67,50.16,28.93,149.49,63.03,206.58,240.35,57.97,0,0,0,0,0,0,0,0,829.18,0
1.5799,25.74,37.18,22,149.49,64.57,213.18,247.17,59.4,0,0,0,0,0,0,0,0,818.73,0
1.5899,22.33,25.85,16.5,147.95,63.03,219.78,253.99,62.37,0,0,0,0,0,0,0,0,811.8,0
1.5999,18.92,19.36,13.75,146.41,63.03,224.84,260.81,63.91,0,0,0,0,0,0,0,0,811.03,0
1.6099,17.16,14.52,11,137.17,61.6,229.79,267.63,66.88,0,0,2.86,0,0,0,0,0,805.75,2.86
1.6199,15.4,14.52,6.82,127.82,57.2,233.09,274.45,66.88,0,0,0,0,0,0,0,0,796.18,0
1.6299,13.75,12.87,8.25,117.04,55.77,233.09,277.86,68.31,0,0,0,0,0,0,0,0,786.94,0
1.6399,13.75,11.33,6.82,105.16,52.91,236.39,279.51,71.28,2.42,0,0,0,0,0,0,0,777.15,2.42
1.6499,13.75,11.33,6.82,89.43,48.73,236.39,282.81,74.36,9.79,0,0,0,0,0,0,0,763.62,9.79
1.6599,11.99,11.33,6.82,73.7,43.12,238.04,284.46,78.76,63.25,3.3,0,0,0,0,0,0,748.22,66.55
1.6699,13.75,8.03,5.5,62.26,37.62,234.74,282.81,83.27,193.6,4.95,4.29,4.73,0,4.73,0,2.86,727.98,215.16
1.6799,11.99,9.68,5.5,49.61,32.01,228.14,282.81,86.24,227.04,14.85,4.29,7.92,0,4.73,0,2.86,705.98,261.69
1.6899,11.99,9.68,4.07,38.94,23.65,218.13,279.51,90.75,284.57,56.1,18.59,7.92,0,5.83,0,2.86,676.72,375.87
1.6999,11.99,9.68,4.07,27.17,18.04,201.52,276.1,95.15,296.45,87.12,35.75,7.92,0,7.04,0,2.86,643.72,437.14
1.7099,10.23,9.68,4.07,15.29,12.54,178.31,271.04,98.12,321.97,113.41,52.91,9.46,0,5.83,0,0,599.28,503.58
1.7199,10.23,9.68,2.75,9.46,11.11,151.36,259.05,104.17,313.5,144.65,66.44,9.46,0,5.83,0,0,557.81,539.88
1.7299,10.23,6.38,4.07,7.04,12.54,116.16,236.94,108.57,289.74,162.8,80.41,17.49,0,4.73,0,0,501.93,555.17
1.7399,8.58,8.03,2.75,7.04,15.29,83.38,204.05,110.11,276.21,187.99,88.22,31.79,0,5.83,0,0,439.23,590.04
1.7499,6.82,6.38,0,5.83,16.72,59.29,167.75,108.57,269.83,203.17,95.92,46.2,3.3,7.04,0,0,371.36,625.46
1.7599,5.06,4.84,2.75,4.73,18.04,44.55,132.33,101.2,265.1,216.59,105.27,57.2,0,15.4,0,5.83,313.5,665.39
1.7699,3.41,4.84,0,7.04,20.9,40.59,90.64,90.75,268.29,228.69,113.08,63.14,3.3,29.59,4.07,11.66,258.17,721.82
1.7799,0,3.19,0,7.04,22.22,35.42,71.28,77.33,276.21,239.25,116.05,70.62,4.95,42.68,6.82,14.63,216.48,771.21
1.7899,0,3.19,0,7.04,16.72,28.82,56.43,60.94,282.92,248.05,125.29,73.59,8.25,48.62,12.32,16.06,173.14,815.1
1.7999,0,0,0,4.73,12.54,23.54,43.45,45.54,289.74,260.48,126.83,75.13,9.9,55.77,17.93,20.46,129.8,856.24
1.8099,0,0,0,4.73,8.36,15.73,31.79,35.86,293.04,267.52,129.91,78.1,9.9,60.28,17.93,22,96.47,878.68
1.8199,0,0,0,2.31,4.18,9.13,23.1,22,294.8,272.8,129.91,79.53,11.55,63.25,22,20.46,60.72,894.3
1.8299,0,0,0,0,2.75,7.81,17.38,13.75,296.45,278.08,128.37,82.5,6.6,64.79,22,22,41.69,900.79
1.8399,0,0,0,0,0,2.53,11.55,4.07,296.45,279.73,125.29,84.04,11.55,66.22,22,22,18.15,907.28
1.8499,0,0,0,0,0,2.53,7.15,0,296.45,281.38,123.75,87.01,9.9,66.22,20.68,22,9.68,907.39
1.8599,0,0,0,0,0,2.53,7.15,0,296.45,281.38,119.13,87.01,11.55,67.76,19.25,22,9.68,904.53
1.8699,0,0,0,0,0,0,7.15,2.75,294.8,284.79,119.13,88.55,8.25,67.76,20.68,22,9.9,905.96
1.8799,0,0,0,0,0,0,5.72,4.07,291.39,283.14,117.59,88.55,9.9,64.79,16.5,23.43,9.79,895.29
1.8899,0,0,0,0,0,0,4.29,2.75,287.98,279.73,113.08,89.98,9.9,67.76,19.25,20.46,7.04,888.14
1.8999,0,0,0,0,0,0,2.86,0,281.16,278.08,113.08,88.55,6.6,69.3,19.25,22,2.86,878.02
1.9099,0,0,0,0,0,0,4.29,0,274.67,272.8,111.43,92.95,8.25,69.3,19.25,22,4.29,870.65
1.9199,0,0,0,0,0,0,0,0,271.48,271.04,106.81,92.95,11.55,70.84,19.25,22,0,865.92
1.9299,0,0,0,0,0,0,2.86,0,265.1,264,108.35,92.95,8.25,69.3,17.93,22,2.86,847.88
1.9399,0,0,0,0,0,0,0,0,260.37,264,105.27,91.52,8.25,70.84,13.75,22,0,836
1.9499,0,0,0,0,0,0,2.86,0,255.64,260.48,102.19,92.95,8.25,67.76,15.18,22,2.86,824.45
1.9599,0,0,0,0,0,0,0,0,250.8,256.96,100.65,94.49,4.95,70.84,12.32,19.03,0,810.04
1.9699,0,0,0,0,0,0,0,0,246.07,256.96,97.46,95.92,6.6,69.3,9.57,20.46,0,802.34
1.9799,0,0,0,0,0,0,0,0,244.53,251.68,95.92,99,6.6,72.27,9.57,17.6,0,797.17
1.9899,0,0,0,0,0,0,2.86,0,242.88,253.44,95.92,101.97,4.95,72.27,11,16.06,2.86,798.49
1.9999,0,0,0,0,0,0,2.86,0,241.34,253.44,92.84,103.4,6.6,75.35,11,20.46,2.86,804.43
2.0099,0,0,0,0,0,0,0,0,239.69,255.2,94.38,109.34,6.6,76.78,11,20.46,0,813.45
2.0199,0,0,0,0,0,0,0,0,234.96,255.2,94.38,115.5,6.6,84.37,12.32,20.46,0,823.79
2.0299,0,0,0,0,0,0,0,0,230.23,255.2,95.92,120.23,6.6,88.88,15.18,22,0,834.24
2.0399,0,0,0,0,0,0,0,0,225.5,251.68,95.92,124.96,8.25,96.47,17.93,23.43,0,844.14
2.0499,0,0,0,0,0,0,0,0,217.47,246.29,94.38,129.69,9.9,102.52,22,24.86,0,847.11
2.0599,0,0,0,0,0,0,0,0,209.55,244.53,95.92,137.61,9.9,111.54,24.75,26.4,0,860.2
2.0699,0,0,0,0,0,0,0,0,198.33,235.73,97.46,145.53,14.85,121.77,30.36,27.83,0,871.86
2.0799,0,0,0,0,0,0,0,0,185.68,228.69,95.92,151.8,14.85,132.22,35.86,30.8,0,875.82
2.0899,0,0,0,0,0,0,0,0,171.27,216.59,91.3,158.18,18.15,144.32,38.61,33.66,0,872.08
2.0999,0,0,0,0,0,0,0,0,156.86,201.41,88.22,167.75,21.45,156.53,46.86,33.66,0,872.74
2.1099,0,0,0,0,0,0,0,0,141.24,189.64,86.68,172.92,21.45,166.98,53.79,36.63,0,869.33
2.1199,0,0,0,0,0,0,2.86,0,124.3,174.46,80.41,179.85,21.45,179.19,60.94,39.6,2.86,860.2
2.1299,0,0,0,0,0,0,0,0,107.47,156.2,74.25,185.02,26.4,191.29,68.31,38.06,0,847
2.1399,0,0,0,0,0,0,2.86,0,91.41,139.7,64.9,195.47,28.05,198.22,75.79,44,2.86,837.54
2.1498,0,0,0,0,0,0,0,0,75.35,121.66,57.2,204.05,26.4,212.19,84.81,45.43,0,827.09
2.1598,0,0,0,0,0,0,0,0,59.29,104.06,48.62,209.22,31.46,224.4,89.21,49.83,0,816.09
